Datetime,Open,High,Low,Close,Volume,Dividends,Stock Splits
2024-06-10 09:30:00-04:00,144.8300018310547,144.8300018310547,144.8300018310547,144.8300018310547,0,0.0,0.0
2024-06-10 09:33:00-04:00,144.7949981689453,144.7949981689453,144.7949981689453,144.7949981689453,103,0.0,0.0
2024-06-10 09:34:00-04:00,144.4499969482422,144.4499969482422,144.4499969482422,144.4499969482422,264,0.0,0.0
2024-06-10 09:36:00-04:00,144.5,144.5,144.5,144.5,420,0.0,0.0
2024-06-10 09:37:00-04:00,144.3800048828125,144.3800048828125,144.3800048828125,144.3800048828125,292,0.0,0.0
2024-06-10 09:40:00-04:00,144.19000244140625,144.19000244140625,144.0,144.0,1212,0.0,0.0
2024-06-10 09:47:00-04:00,144.16000366210938,144.16000366210938,144.16000366210938,144.16000366210938,144,0.0,0.0
2024-06-10 09:48:00-04:00,144.35569763183594,144.35569763183594,144.35569763183594,144.35569763183594,105,0.0,0.0
2024-06-10 09:49:00-04:00,144.44500732421875,144.44500732421875,144.44500732421875,144.44500732421875,257,0.0,0.0
2024-06-10 09:50:00-04:00,144.36000061035156,144.36000061035156,144.36000061035156,144.36000061035156,450,0.0,0.0
2024-06-10 09:58:00-04:00,144.5,144.5,144.5,144.5,485,0.0,0.0
2024-06-10 10:03:00-04:00,144.3300018310547,144.3300018310547,144.3000030517578,144.3000030517578,533,0.0,0.0
2024-06-10 10:04:00-04:00,144.27000427246094,144.27000427246094,144.27000427246094,144.27000427246094,398,0.0,0.0
2024-06-10 10:07:00-04:00,144.27000427246094,144.27000427246094,144.07000732421875,144.07000732421875,1064,0.0,0.0
2024-06-10 10:08:00-04:00,144.11000061035156,144.11000061035156,144.0449981689453,144.0449981689453,502,0.0,0.0
2024-06-10 10:09:00-04:00,143.99000549316406,144.125,143.99000549316406,144.125,637,0.0,0.0
2024-06-10 10:10:00-04:00,144.0,144.0,144.0,144.0,578,0.0,0.0
2024-06-10 10:13:00-04:00,144.02000427246094,144.02000427246094,144.02000427246094,144.02000427246094,223,0.0,0.0
2024-06-10 10:15:00-04:00,144.25999450683594,144.32000732421875,144.25999450683594,144.32000732421875,770,0.0,0.0
2024-06-10 10:18:00-04:00,144.38999938964844,144.38999938964844,144.38999938964844,144.38999938964844,284,0.0,0.0
2024-06-10 10:19:00-04:00,144.24000549316406,144.24000549316406,144.16000366210938,144.16000366210938,597,0.0,0.0
2024-06-10 10:20:00-04:00,144.25999450683594,144.25999450683594,144.25,144.25,879,0.0,0.0
2024-06-10 10:31:00-04:00,144.2899932861328,144.2899932861328,144.22500610351562,144.22500610351562,514,0.0,0.0
2024-06-10 10:36:00-04:00,144.36000061035156,144.5,144.36000061035156,144.5,1093,0.0,0.0
2024-06-10 10:38:00-04:00,144.5,144.50999450683594,144.5,144.50999450683594,854,0.0,0.0
2024-06-10 10:53:00-04:00,144.47999572753906,144.47999572753906,144.47999572753906,144.47999572753906,255,0.0,0.0
2024-06-10 10:55:00-04:00,144.47000122070312,144.47999572753906,144.41000366210938,144.47000122070312,1113,0.0,0.0
2024-06-10 10:57:00-04:00,144.44000244140625,144.44000244140625,144.44000244140625,144.44000244140625,185,0.0,0.0
2024-06-10 10:59:00-04:00,144.5800018310547,144.5800018310547,144.5800018310547,144.5800018310547,919,0.0,0.0
2024-06-10 11:10:00-04:00,144.57000732421875,144.57000732421875,144.57000732421875,144.57000732421875,345,0.0,0.0
2024-06-10 11:12:00-04:00,144.4965057373047,144.4965057373047,144.4965057373047,144.4965057373047,171,0.0,0.0
2024-06-10 11:13:00-04:00,144.44000244140625,144.44000244140625,144.38999938964844,144.38999938964844,1195,0.0,0.0
2024-06-10 11:14:00-04:00,144.3300018310547,144.3300018310547,144.3300018310547,144.3300018310547,574,0.0,0.0
2024-06-10 11:15:00-04:00,144.27000427246094,144.27000427246094,144.25999450683594,144.25999450683594,383,0.0,0.0
2024-06-10 11:19:00-04:00,144.25999450683594,144.25999450683594,144.25999450683594,144.25999450683594,466,0.0,0.0
2024-06-10 11:30:00-04:00,144.25,144.25,144.25,144.25,952,0.0,0.0
2024-06-10 11:35:00-04:00,144.2949981689453,144.2949981689453,144.2949981689453,144.2949981689453,586,0.0,0.0
2024-06-10 11:37:00-04:00,144.30499267578125,144.38999938964844,144.3000030517578,144.3000030517578,814,0.0,0.0
2024-06-10 11:44:00-04:00,144.28160095214844,144.28160095214844,144.28160095214844,144.28160095214844,335,0.0,0.0
2024-06-10 11:46:00-04:00,144.22999572753906,144.22999572753906,144.22999572753906,144.22999572753906,1086,0.0,0.0
2024-06-10 12:02:00-04:00,144.22999572753906,144.22999572753906,144.22999572753906,144.22999572753906,911,0.0,0.0
2024-06-10 12:03:00-04:00,144.4199981689453,144.4199981689453,144.4199981689453,144.4199981689453,680,0.0,0.0
2024-06-10 12:13:00-04:00,144.60000610351562,144.60000610351562,144.60000610351562,144.60000610351562,151,0.0,0.0
2024-06-10 12:18:00-04:00,144.66000366210938,144.66000366210938,144.66000366210938,144.66000366210938,225,0.0,0.0
2024-06-10 12:20:00-04:00,144.7899932861328,144.7899932861328,144.7899932861328,144.7899932861328,194,0.0,0.0
2024-06-10 12:23:00-04:00,144.7899932861328,144.7899932861328,144.72000122070312,144.72000122070312,642,0.0,0.0
2024-06-10 12:31:00-04:00,144.75999450683594,144.75999450683594,144.66000366210938,144.66000366210938,1979,0.0,0.0
2024-06-10 12:41:00-04:00,144.75,144.75,144.75,144.75,695,0.0,0.0
2024-06-10 12:44:00-04:00,144.8249969482422,144.8249969482422,144.8249969482422,144.8249969482422,153,0.0,0.0
2024-06-10 12:45:00-04:00,144.8300018310547,144.8300018310547,144.8300018310547,144.8300018310547,374,0.0,0.0
2024-06-10 12:52:00-04:00,144.8760986328125,144.8760986328125,144.8350067138672,144.8350067138672,524,0.0,0.0
2024-06-10 12:56:00-04:00,144.9499969482422,144.9499969482422,144.92999267578125,144.92999267578125,345,0.0,0.0
2024-06-10 13:01:00-04:00,144.7100067138672,144.7100067138672,144.7100067138672,144.7100067138672,691,0.0,0.0
2024-06-10 13:07:00-04:00,144.77999877929688,144.77999877929688,144.77999877929688,144.77999877929688,126,0.0,0.0
2024-06-10 13:08:00-04:00,144.84500122070312,144.84500122070312,144.84500122070312,144.84500122070312,346,0.0,0.0
2024-06-10 13:16:00-04:00,144.72000122070312,144.72000122070312,144.72000122070312,144.72000122070312,1409,0.0,0.0
2024-06-10 13:34:00-04:00,144.96499633789062,144.96499633789062,144.96499633789062,144.96499633789062,1758,0.0,0.0
2024-06-10 13:50:00-04:00,145.0800018310547,145.0800018310547,145.0800018310547,145.0800018310547,469,0.0,0.0
2024-06-10 13:59:00-04:00,145.0500030517578,145.0500030517578,145.0500030517578,145.0500030517578,668,0.0,0.0
2024-06-10 14:00:00-04:00,145.18499755859375,145.18499755859375,145.18499755859375,145.18499755859375,331,0.0,0.0
2024-06-10 14:01:00-04:00,145.25999450683594,145.25999450683594,145.22000122070312,145.22000122070312,1975,0.0,0.0
2024-06-10 14:07:00-04:00,145.2100067138672,145.2100067138672,145.2100067138672,145.2100067138672,1179,0.0,0.0
2024-06-10 14:16:00-04:00,145.36000061035156,145.36000061035156,145.36000061035156,145.36000061035156,786,0.0,0.0
2024-06-10 14:23:00-04:00,145.42999267578125,145.42999267578125,145.42999267578125,145.42999267578125,795,0.0,0.0
2024-06-10 14:24:00-04:00,145.4600067138672,145.4600067138672,145.4600067138672,145.4600067138672,1019,0.0,0.0
2024-06-10 14:32:00-04:00,145.5500030517578,145.5500030517578,145.5500030517578,145.5500030517578,448,0.0,0.0
2024-06-10 14:33:00-04:00,145.5449981689453,145.5449981689453,145.5449981689453,145.5449981689453,199,0.0,0.0
2024-06-10 14:34:00-04:00,145.53329467773438,145.53329467773438,145.53329467773438,145.53329467773438,478,0.0,0.0
2024-06-10 14:39:00-04:00,145.55499267578125,145.55499267578125,145.5,145.5,1676,0.0,0.0
2024-06-10 14:41:00-04:00,145.55999755859375,145.55999755859375,145.55999755859375,145.55999755859375,519,0.0,0.0
2024-06-10 14:48:00-04:00,145.5399932861328,145.5399932861328,145.5399932861328,145.5399932861328,219,0.0,0.0
2024-06-10 14:49:00-04:00,145.5399932861328,145.5399932861328,145.3800048828125,145.38999938964844,1735,0.0,0.0
2024-06-10 14:58:00-04:00,145.47999572753906,145.47999572753906,145.47999572753906,145.47999572753906,517,0.0,0.0
2024-06-10 15:05:00-04:00,145.50999450683594,145.50999450683594,145.50999450683594,145.50999450683594,802,0.0,0.0
2024-06-10 15:10:00-04:00,145.44000244140625,145.44000244140625,145.44000244140625,145.44000244140625,383,0.0,0.0
2024-06-10 15:15:00-04:00,145.4499969482422,145.4600067138672,145.39999389648438,145.39999389648438,927,0.0,0.0
2024-06-10 15:17:00-04:00,145.38999938964844,145.38999938964844,145.38999938964844,145.38999938964844,326,0.0,0.0
2024-06-10 15:18:00-04:00,145.38999938964844,145.38999938964844,145.38999938964844,145.38999938964844,571,0.0,0.0
2024-06-10 15:23:00-04:00,145.44000244140625,145.44000244140625,145.44000244140625,145.44000244140625,445,0.0,0.0
2024-06-10 15:24:00-04:00,145.4499969482422,145.4499969482422,145.4499969482422,145.4499969482422,146,0.0,0.0
2024-06-10 15:25:00-04:00,145.38999938964844,145.38999938964844,145.38999938964844,145.38999938964844,637,0.0,0.0
2024-06-10 15:30:00-04:00,145.41000366210938,145.4199981689453,145.33999633789062,145.33999633789062,1339,0.0,0.0
2024-06-10 15:32:00-04:00,145.32000732421875,145.32000732421875,145.32000732421875,145.32000732421875,476,0.0,0.0
2024-06-10 15:34:00-04:00,145.41000366210938,145.44500732421875,145.41000366210938,145.44500732421875,1309,0.0,0.0
2024-06-10 15:39:00-04:00,145.49000549316406,145.49000549316406,145.49000549316406,145.49000549316406,578,0.0,0.0
2024-06-10 15:40:00-04:00,145.4949951171875,145.58999633789062,145.4949951171875,145.58999633789062,1207,0.0,0.0
2024-06-10 15:41:00-04:00,145.6199951171875,145.67999267578125,145.61000061035156,145.63999938964844,1520,0.0,0.0
2024-06-10 15:43:00-04:00,145.72000122070312,145.72000122070312,145.72000122070312,145.72000122070312,255,0.0,0.0
2024-06-10 15:44:00-04:00,145.77999877929688,145.77999877929688,145.7310028076172,145.7550048828125,686,0.0,0.0
2024-06-10 15:45:00-04:00,145.77999877929688,145.80999755859375,145.74000549316406,145.80999755859375,2034,0.0,0.0
2024-06-10 15:47:00-04:00,145.77999877929688,145.77999877929688,145.7100067138672,145.72000122070312,1017,0.0,0.0
2024-06-10 15:48:00-04:00,145.6699981689453,145.6699981689453,145.6199951171875,145.6199951171875,1179,0.0,0.0
2024-06-10 15:49:00-04:00,145.55999755859375,145.55999755859375,145.43499755859375,145.52999877929688,2296,0.0,0.0
2024-06-10 15:50:00-04:00,145.47999572753906,145.47999572753906,145.47999572753906,145.47999572753906,279,0.0,0.0
2024-06-10 15:51:00-04:00,145.50999450683594,145.50999450683594,145.4770050048828,145.4770050048828,443,0.0,0.0
2024-06-10 15:52:00-04:00,145.52000427246094,145.6300048828125,145.4600067138672,145.6199951171875,4588,0.0,0.0
2024-06-10 15:53:00-04:00,145.5570068359375,145.6199951171875,145.5570068359375,145.6199951171875,912,0.0,0.0
2024-06-10 15:54:00-04:00,145.7100067138672,145.72000122070312,145.7100067138672,145.72000122070312,720,0.0,0.0
2024-06-10 15:55:00-04:00,145.6300048828125,145.6300048828125,145.52000427246094,145.5399932861328,2538,0.0,0.0
2024-06-10 15:56:00-04:00,145.5399932861328,145.5399932861328,145.47999572753906,145.47999572753906,1723,0.0,0.0
2024-06-10 15:57:00-04:00,145.49000549316406,145.57000732421875,145.49000549316406,145.5500030517578,1748,0.0,0.0
2024-06-10 15:58:00-04:00,145.5500030517578,145.5800018310547,145.5500030517578,145.57000732421875,2189,0.0,0.0
2024-06-10 15:59:00-04:00,145.64999389648438,145.66000366210938,145.5449981689453,145.5449981689453,5933,0.0,0.0
2024-06-11 09:30:00-04:00,144.91000366210938,145.6999969482422,144.5,145.1649932861328,1838,0.0,0.0
2024-06-11 09:36:00-04:00,145.0800018310547,145.0800018310547,145.0800018310547,145.0800018310547,176,0.0,0.0
2024-06-11 09:39:00-04:00,144.5,144.5,144.5,144.5,377,0.0,0.0
2024-06-11 09:40:00-04:00,144.6750030517578,144.6750030517578,144.6750030517578,144.6750030517578,263,0.0,0.0
2024-06-11 09:43:00-04:00,144.76499938964844,144.76499938964844,144.76499938964844,144.76499938964844,275,0.0,0.0
2024-06-11 09:47:00-04:00,144.47999572753906,144.47999572753906,144.47999572753906,144.47999572753906,148,0.0,0.0
2024-06-11 09:49:00-04:00,144.5850067138672,144.5850067138672,144.5850067138672,144.5850067138672,553,0.0,0.0
2024-06-11 09:56:00-04:00,144.6199951171875,144.6199951171875,144.6199951171875,144.6199951171875,950,0.0,0.0
2024-06-11 10:02:00-04:00,144.47999572753906,144.50999450683594,144.4600067138672,144.50999450683594,462,0.0,0.0
2024-06-11 10:05:00-04:00,144.35000610351562,144.35000610351562,144.35000610351562,144.35000610351562,132,0.0,0.0
2024-06-11 10:06:00-04:00,144.51499938964844,144.51499938964844,144.51499938964844,144.51499938964844,907,0.0,0.0
2024-06-11 10:17:00-04:00,144.5399932861328,144.5399932861328,144.5399932861328,144.5399932861328,278,0.0,0.0
2024-06-11 10:19:00-04:00,144.67999267578125,144.67999267578125,144.67999267578125,144.67999267578125,1796,0.0,0.0
2024-06-11 10:24:00-04:00,144.9499969482422,144.9499969482422,144.9499969482422,144.9499969482422,139,0.0,0.0
2024-06-11 10:25:00-04:00,144.94500732421875,144.94500732421875,144.94500732421875,144.94500732421875,303,0.0,0.0
2024-06-11 10:28:00-04:00,144.8000030517578,144.90499877929688,144.8000030517578,144.90499877929688,333,0.0,0.0
2024-06-11 10:30:00-04:00,144.77000427246094,144.77000427246094,144.67999267578125,144.75,1592,0.0,0.0
2024-06-11 10:40:00-04:00,144.89999389648438,144.89999389648438,144.89999389648438,144.89999389648438,846,0.0,0.0
2024-06-11 10:51:00-04:00,144.80999755859375,144.80999755859375,144.8000030517578,144.8000030517578,1352,0.0,0.0
2024-06-11 10:53:00-04:00,144.6300048828125,144.6300048828125,144.6300048828125,144.6300048828125,200,0.0,0.0
2024-06-11 10:54:00-04:00,144.64500427246094,144.64500427246094,144.64500427246094,144.64500427246094,1213,0.0,0.0
2024-06-11 11:01:00-04:00,144.8699951171875,144.8699951171875,144.8699951171875,144.8699951171875,791,0.0,0.0
2024-06-11 11:06:00-04:00,144.88499450683594,144.88499450683594,144.88499450683594,144.88499450683594,979,0.0,0.0
2024-06-11 11:24:00-04:00,144.875,144.875,144.875,144.875,1044,0.0,0.0
2024-06-11 11:32:00-04:00,144.9600067138672,144.97000122070312,144.875,144.875,1205,0.0,0.0
2024-06-11 11:34:00-04:00,144.97000122070312,144.97000122070312,144.97000122070312,144.97000122070312,619,0.0,0.0
2024-06-11 11:36:00-04:00,144.9199981689453,144.9199981689453,144.91000366210938,144.91000366210938,1396,0.0,0.0
2024-06-11 11:37:00-04:00,144.86000061035156,144.86000061035156,144.86000061035156,144.86000061035156,347,0.0,0.0
2024-06-11 11:38:00-04:00,144.83999633789062,144.83999633789062,144.83999633789062,144.83999633789062,244,0.0,0.0
2024-06-11 11:41:00-04:00,144.83999633789062,144.83999633789062,144.83999633789062,144.83999633789062,790,0.0,0.0
2024-06-11 11:46:00-04:00,144.97000122070312,145.0,144.97000122070312,145.0,957,0.0,0.0
2024-06-11 11:55:00-04:00,145.0,145.0,145.0,145.0,396,0.0,0.0
2024-06-11 12:01:00-04:00,144.89999389648438,144.9499969482422,144.89999389648438,144.9499969482422,1410,0.0,0.0
2024-06-11 12:03:00-04:00,144.83999633789062,144.83999633789062,144.83999633789062,144.83999633789062,114,0.0,0.0
2024-06-11 12:04:00-04:00,144.72999572753906,144.72999572753906,144.72999572753906,144.72999572753906,221,0.0,0.0
2024-06-11 12:05:00-04:00,144.72000122070312,144.73500061035156,144.72000122070312,144.73500061035156,1639,0.0,0.0
2024-06-11 12:06:00-04:00,144.73500061035156,144.8699951171875,144.73500061035156,144.8249969482422,1129,0.0,0.0
2024-06-11 12:07:00-04:00,144.85000610351562,144.85000610351562,144.85000610351562,144.85000610351562,514,0.0,0.0
2024-06-11 12:10:00-04:00,144.94000244140625,144.94000244140625,144.94000244140625,144.94000244140625,435,0.0,0.0
2024-06-11 12:11:00-04:00,144.92999267578125,144.92999267578125,144.88499450683594,144.88499450683594,2132,0.0,0.0
2024-06-11 12:12:00-04:00,144.72999572753906,144.80430603027344,144.72999572753906,144.80430603027344,952,0.0,0.0
2024-06-11 12:13:00-04:00,144.75,144.75,144.75,144.75,391,0.0,0.0
2024-06-11 12:14:00-04:00,144.80499267578125,144.80499267578125,144.80499267578125,144.80499267578125,1220,0.0,0.0
2024-06-11 12:25:00-04:00,144.6999969482422,144.78810119628906,144.6999969482422,144.78810119628906,814,0.0,0.0
2024-06-11 12:26:00-04:00,144.6999969482422,144.80999755859375,144.6999969482422,144.80999755859375,1119,0.0,0.0
2024-06-11 12:33:00-04:00,144.76499938964844,144.76499938964844,144.75999450683594,144.75999450683594,393,0.0,0.0
2024-06-11 12:36:00-04:00,144.85000610351562,144.92999267578125,144.85000610351562,144.89999389648438,1119,0.0,0.0
2024-06-11 12:39:00-04:00,144.97999572753906,144.97999572753906,144.92999267578125,144.92999267578125,810,0.0,0.0
2024-06-11 12:52:00-04:00,145.10000610351562,145.10000610351562,145.0800018310547,145.0800018310547,1055,0.0,0.0
2024-06-11 13:01:00-04:00,145.20730590820312,145.20730590820312,145.20730590820312,145.20730590820312,561,0.0,0.0
2024-06-11 13:02:00-04:00,145.32000732421875,145.32000732421875,145.32000732421875,145.32000732421875,484,0.0,0.0
2024-06-11 13:05:00-04:00,145.4199981689453,145.4199981689453,145.4199981689453,145.4199981689453,515,0.0,0.0
2024-06-11 13:12:00-04:00,145.22999572753906,145.32000732421875,145.17999267578125,145.2949981689453,2852,0.0,0.0
2024-06-11 13:19:00-04:00,145.13999938964844,145.13999938964844,145.13999938964844,145.13999938964844,362,0.0,0.0
2024-06-11 13:24:00-04:00,145.0800018310547,145.08999633789062,145.0800018310547,145.08999633789062,1144,0.0,0.0
2024-06-11 13:30:00-04:00,145.0749969482422,145.0749969482422,145.0749969482422,145.0749969482422,704,0.0,0.0
2024-06-11 13:35:00-04:00,145.02000427246094,145.02000427246094,145.02000427246094,145.02000427246094,926,0.0,0.0
2024-06-11 13:38:00-04:00,145.06500244140625,145.06500244140625,145.06500244140625,145.06500244140625,447,0.0,0.0
2024-06-11 13:48:00-04:00,145.0399932861328,145.0399932861328,145.0399932861328,145.0399932861328,372,0.0,0.0
2024-06-11 13:52:00-04:00,145.07000732421875,145.1300048828125,145.07000732421875,145.10000610351562,1631,0.0,0.0
2024-06-11 13:54:00-04:00,145.22000122070312,145.22000122070312,145.22000122070312,145.22000122070312,1317,0.0,0.0
2024-06-11 14:09:00-04:00,145.0800018310547,145.1649932861328,145.05999755859375,145.05999755859375,1608,0.0,0.0
2024-06-11 14:11:00-04:00,145.1300048828125,145.13499450683594,145.1300048828125,145.13499450683594,423,0.0,0.0
2024-06-11 14:14:00-04:00,145.22000122070312,145.22999572753906,145.22000122070312,145.22999572753906,756,0.0,0.0
2024-06-11 14:18:00-04:00,145.2899932861328,145.2899932861328,145.2899932861328,145.2899932861328,456,0.0,0.0
2024-06-11 14:22:00-04:00,145.2572021484375,145.2572021484375,145.2572021484375,145.2572021484375,1194,0.0,0.0
2024-06-11 14:33:00-04:00,145.41000366210938,145.52999877929688,145.41000366210938,145.52999877929688,1156,0.0,0.0
2024-06-11 14:38:00-04:00,145.5,145.5,145.38999938964844,145.38999938964844,1690,0.0,0.0
2024-06-11 14:39:00-04:00,145.30999755859375,145.30999755859375,145.3000030517578,145.3000030517578,557,0.0,0.0
2024-06-11 14:45:00-04:00,145.32000732421875,145.32000732421875,145.32000732421875,145.32000732421875,328,0.0,0.0
2024-06-11 14:47:00-04:00,145.47999572753906,145.47999572753906,145.47999572753906,145.47999572753906,482,0.0,0.0
2024-06-11 14:53:00-04:00,145.3498992919922,145.3498992919922,145.3498992919922,145.3498992919922,357,0.0,0.0
2024-06-11 14:55:00-04:00,145.35000610351562,145.35000610351562,145.35000610351562,145.35000610351562,206,0.0,0.0
2024-06-11 14:56:00-04:00,145.3300018310547,145.3300018310547,145.32000732421875,145.32000732421875,1662,0.0,0.0
2024-06-11 14:57:00-04:00,145.25999450683594,145.25999450683594,145.25999450683594,145.25999450683594,448,0.0,0.0
2024-06-11 15:00:00-04:00,145.3300018310547,145.3300018310547,145.3300018310547,145.3300018310547,968,0.0,0.0
2024-06-11 15:04:00-04:00,145.3350067138672,145.3350067138672,145.3350067138672,145.3350067138672,579,0.0,0.0
2024-06-11 15:09:00-04:00,145.42999267578125,145.42999267578125,145.42999267578125,145.42999267578125,948,0.0,0.0
2024-06-11 15:11:00-04:00,145.44000244140625,145.47999572753906,145.39999389648438,145.39999389648438,1535,0.0,0.0
2024-06-11 15:12:00-04:00,145.38999938964844,145.38999938964844,145.38999938964844,145.38999938964844,140,0.0,0.0
2024-06-11 15:13:00-04:00,145.2899932861328,145.2899932861328,145.2899932861328,145.2899932861328,346,0.0,0.0
2024-06-11 15:14:00-04:00,145.2899932861328,145.2899932861328,145.2899932861328,145.2899932861328,611,0.0,0.0
2024-06-11 15:17:00-04:00,145.34500122070312,145.34500122070312,145.34500122070312,145.34500122070312,269,0.0,0.0
2024-06-11 15:18:00-04:00,145.39999389648438,145.39999389648438,145.38290405273438,145.38290405273438,1470,0.0,0.0
2024-06-11 15:24:00-04:00,145.47000122070312,145.47000122070312,145.47000122070312,145.47000122070312,378,0.0,0.0
2024-06-11 15:25:00-04:00,145.47000122070312,145.47000122070312,145.47000122070312,145.47000122070312,649,0.0,0.0
2024-06-11 15:28:00-04:00,145.4199981689453,145.4199981689453,145.4199981689453,145.4199981689453,964,0.0,0.0
2024-06-11 15:33:00-04:00,145.5,145.5,145.5,145.5,318,0.0,0.0
2024-06-11 15:34:00-04:00,145.50999450683594,145.61000061035156,145.50999450683594,145.61000061035156,2312,0.0,0.0
2024-06-11 15:35:00-04:00,145.52999877929688,145.52999877929688,145.47999572753906,145.48500061035156,3478,0.0,0.0
2024-06-11 15:38:00-04:00,145.5,145.5,145.5,145.5,291,0.0,0.0
2024-06-11 15:39:00-04:00,145.5399932861328,145.5399932861328,145.5399932861328,145.5399932861328,841,0.0,0.0
2024-06-11 15:42:00-04:00,145.5399932861328,145.5399932861328,145.5399932861328,145.5399932861328,954,0.0,0.0
2024-06-11 15:43:00-04:00,145.55999755859375,145.55999755859375,145.55999755859375,145.55999755859375,252,0.0,0.0
2024-06-11 15:45:00-04:00,145.4499969482422,145.50039672851562,145.44000244140625,145.50039672851562,1584,0.0,0.0
2024-06-11 15:47:00-04:00,145.41000366210938,145.41000366210938,145.41000366210938,145.41000366210938,966,0.0,0.0
2024-06-11 15:48:00-04:00,145.39999389648438,145.4600067138672,145.39999389648438,145.4600067138672,1262,0.0,0.0
2024-06-11 15:49:00-04:00,145.39999389648438,145.4199981689453,145.3800048828125,145.3800048828125,1612,0.0,0.0
2024-06-11 15:51:00-04:00,145.4600067138672,145.52999877929688,145.4149932861328,145.52999877929688,3055,0.0,0.0
2024-06-11 15:52:00-04:00,145.5800018310547,145.72999572753906,145.5800018310547,145.72999572753906,973,0.0,0.0
2024-06-11 15:53:00-04:00,145.6999969482422,145.72000122070312,145.6699981689453,145.72000122070312,2246,0.0,0.0
2024-06-11 15:54:00-04:00,145.66180419921875,145.74000549316406,145.66180419921875,145.69000244140625,2765,0.0,0.0
2024-06-11 15:55:00-04:00,145.72000122070312,145.72000122070312,145.52999877929688,145.52999877929688,5052,0.0,0.0
2024-06-11 15:56:00-04:00,145.55999755859375,145.55999755859375,145.47000122070312,145.5,2735,0.0,0.0
2024-06-11 15:57:00-04:00,145.44000244140625,145.4600067138672,145.39999389648438,145.39999389648438,2361,0.0,0.0
2024-06-11 15:58:00-04:00,145.4199981689453,145.4199981689453,145.3300018310547,145.3699951171875,2362,0.0,0.0
2024-06-11 15:59:00-04:00,145.42999267578125,145.52000427246094,145.39999389648438,145.5,4172,0.0,0.0
2024-06-12 09:30:00-04:00,146.24000549316406,146.24000549316406,146.24000549316406,146.24000549316406,1334,0.0,0.0
2024-06-12 09:32:00-04:00,145.9949951171875,145.9949951171875,145.9949951171875,145.9949951171875,158,0.0,0.0
2024-06-12 09:43:00-04:00,145.42770385742188,145.42770385742188,145.42770385742188,145.42770385742188,251,0.0,0.0
2024-06-12 09:45:00-04:00,146.30999755859375,146.30999755859375,145.75,145.75,617,0.0,0.0
2024-06-12 09:50:00-04:00,145.80999755859375,145.80999755859375,145.6699981689453,145.6699981689453,443,0.0,0.0
2024-06-12 09:51:00-04:00,145.6699981689453,145.6699981689453,145.6699981689453,145.6699981689453,246,0.0,0.0
2024-06-12 09:52:00-04:00,145.47000122070312,145.7449951171875,145.47000122070312,145.7449951171875,668,0.0,0.0
2024-06-12 09:53:00-04:00,145.47000122070312,145.47000122070312,145.47000122070312,145.47000122070312,644,0.0,0.0
2024-06-12 09:56:00-04:00,145.24000549316406,145.24000549316406,145.24000549316406,145.24000549316406,186,0.0,0.0
2024-06-12 10:01:00-04:00,145.48500061035156,145.48500061035156,145.48500061035156,145.48500061035156,129,0.0,0.0
2024-06-12 10:04:00-04:00,145.4600067138672,145.4600067138672,145.4600067138672,145.4600067138672,113,0.0,0.0
2024-06-12 10:06:00-04:00,145.47000122070312,145.47000122070312,145.47000122070312,145.47000122070312,753,0.0,0.0
2024-06-12 10:12:00-04:00,145.0399932861328,145.0399932861328,145.0399932861328,145.0399932861328,127,0.0,0.0
2024-06-12 10:13:00-04:00,145.00999450683594,145.00999450683594,145.0,145.00999450683594,1278,0.0,0.0
2024-06-12 10:14:00-04:00,145.02000427246094,145.1999969482422,145.02000427246094,145.197998046875,1823,0.0,0.0
2024-06-12 10:15:00-04:00,145.36000061035156,145.3699951171875,145.36000061035156,145.3699951171875,786,0.0,0.0
2024-06-12 10:16:00-04:00,145.42999267578125,145.42999267578125,145.3699951171875,145.3699951171875,390,0.0,0.0
2024-06-12 10:17:00-04:00,145.5012969970703,145.5012969970703,145.5012969970703,145.5012969970703,452,0.0,0.0
2024-06-12 10:20:00-04:00,145.72000122070312,145.72999572753906,145.72000122070312,145.72999572753906,226,0.0,0.0
2024-06-12 10:21:00-04:00,145.72999572753906,145.72999572753906,145.6999969482422,145.6999969482422,820,0.0,0.0
2024-06-12 10:23:00-04:00,145.7050018310547,145.7050018310547,145.7050018310547,145.7050018310547,140,0.0,0.0
2024-06-12 10:24:00-04:00,145.92999267578125,145.92999267578125,145.92999267578125,145.92999267578125,522,0.0,0.0
2024-06-12 10:25:00-04:00,145.9199981689453,145.9199981689453,145.77499389648438,145.77499389648438,601,0.0,0.0
2024-06-12 10:27:00-04:00,145.6199951171875,145.77499389648438,145.4199981689453,145.4199981689453,1511,0.0,0.0
2024-06-12 10:28:00-04:00,145.64999389648438,145.64999389648438,145.52000427246094,145.52000427246094,5767,0.0,0.0
2024-06-12 10:32:00-04:00,145.42999267578125,145.42999267578125,145.39999389648438,145.39999389648438,788,0.0,0.0
2024-06-12 10:37:00-04:00,145.63999938964844,145.63999938964844,145.63999938964844,145.63999938964844,835,0.0,0.0
2024-06-12 10:46:00-04:00,145.47500610351562,145.47500610351562,145.47500610351562,145.47500610351562,496,0.0,0.0
2024-06-12 10:51:00-04:00,145.30999755859375,145.30999755859375,145.30999755859375,145.30999755859375,710,0.0,0.0
2024-06-12 11:01:00-04:00,145.10000610351562,145.10000610351562,145.10000610351562,145.10000610351562,207,0.0,0.0
2024-06-12 11:03:00-04:00,145.0019989013672,145.0019989013672,145.0019989013672,145.0019989013672,194,0.0,0.0
2024-06-12 11:04:00-04:00,144.9199981689453,145.05999755859375,144.9199981689453,145.05999755859375,485,0.0,0.0
2024-06-12 11:08:00-04:00,145.1300048828125,145.1300048828125,145.1300048828125,145.1300048828125,626,0.0,0.0
2024-06-12 11:10:00-04:00,144.97999572753906,144.97999572753906,144.97999572753906,144.97999572753906,840,0.0,0.0
2024-06-12 11:12:00-04:00,145.07000732421875,145.3000030517578,145.07000732421875,145.25999450683594,2594,0.0,0.0
2024-06-12 11:34:00-04:00,145.05999755859375,145.05999755859375,145.05999755859375,145.05999755859375,806,0.0,0.0
2024-06-12 11:48:00-04:00,145.02000427246094,145.02000427246094,144.9499969482422,144.99000549316406,925,0.0,0.0
2024-06-12 11:49:00-04:00,144.98500061035156,144.98500061035156,144.98500061035156,144.98500061035156,469,0.0,0.0
2024-06-12 11:52:00-04:00,145.02000427246094,145.02000427246094,145.02000427246094,145.02000427246094,350,0.0,0.0
2024-06-12 11:55:00-04:00,145.0399932861328,145.0399932861328,145.0399932861328,145.0399932861328,932,0.0,0.0
2024-06-12 12:04:00-04:00,145.14999389648438,145.14999389648438,145.14999389648438,145.14999389648438,398,0.0,0.0
2024-06-12 12:10:00-04:00,145.14999389648438,145.14999389648438,145.14999389648438,145.14999389648438,509,0.0,0.0
2024-06-12 12:14:00-04:00,145.19000244140625,145.19000244140625,145.19000244140625,145.19000244140625,651,0.0,0.0
2024-06-12 12:16:00-04:00,145.19000244140625,145.19000244140625,145.17999267578125,145.17999267578125,615,0.0,0.0
2024-06-12 12:18:00-04:00,145.3699951171875,145.3699951171875,145.3699951171875,145.3699951171875,143,0.0,0.0
2024-06-12 12:19:00-04:00,145.38499450683594,145.38499450683594,145.38499450683594,145.38499450683594,100,0.0,0.0
2024-06-12 12:20:00-04:00,145.2899932861328,145.2899932861328,145.2899932861328,145.2899932861328,142,0.0,0.0
2024-06-12 12:24:00-04:00,145.35499572753906,145.35499572753906,145.35499572753906,145.35499572753906,857,0.0,0.0
2024-06-12 12:38:00-04:00,145.22999572753906,145.22999572753906,145.22999572753906,145.22999572753906,1684,0.0,0.0
2024-06-12 12:57:00-04:00,145.1300048828125,145.1300048828125,145.1300048828125,145.1300048828125,382,0.0,0.0
2024-06-12 12:58:00-04:00,145.1649932861328,145.1649932861328,145.1649932861328,145.1649932861328,454,0.0,0.0
2024-06-12 13:03:00-04:00,145.13999938964844,145.13999938964844,145.13999938964844,145.13999938964844,276,0.0,0.0
2024-06-12 13:10:00-04:00,145.0800018310547,145.0800018310547,144.94000244140625,144.94000244140625,1127,0.0,0.0
2024-06-12 13:15:00-04:00,144.97000122070312,144.97000122070312,144.97000122070312,144.97000122070312,295,0.0,0.0
2024-06-12 13:18:00-04:00,145.05999755859375,145.05999755859375,145.05999755859375,145.05999755859375,302,0.0,0.0
2024-06-12 13:20:00-04:00,145.1199951171875,145.1199951171875,145.1199951171875,145.1199951171875,247,0.0,0.0
2024-06-12 13:23:00-04:00,145.06500244140625,145.06500244140625,145.06500244140625,145.06500244140625,337,0.0,0.0
2024-06-12 13:28:00-04:00,145.00999450683594,145.00999450683594,145.00999450683594,145.00999450683594,453,0.0,0.0
2024-06-12 13:31:00-04:00,145.02000427246094,145.02000427246094,145.02000427246094,145.02000427246094,847,0.0,0.0
2024-06-12 13:33:00-04:00,144.97000122070312,144.97000122070312,144.97000122070312,144.97000122070312,465,0.0,0.0
2024-06-12 13:34:00-04:00,144.9199981689453,144.9199981689453,144.88499450683594,144.88499450683594,888,0.0,0.0
2024-06-12 13:35:00-04:00,144.9499969482422,145.05499267578125,144.9499969482422,145.05499267578125,2187,0.0,0.0
2024-06-12 13:38:00-04:00,144.9600067138672,144.9600067138672,144.9600067138672,144.9600067138672,189,0.0,0.0
2024-06-12 13:41:00-04:00,144.97000122070312,144.97000122070312,144.97000122070312,144.97000122070312,164,0.0,0.0
2024-06-12 13:43:00-04:00,144.85000610351562,144.86000061035156,144.8300018310547,144.85000610351562,1251,0.0,0.0
2024-06-12 13:47:00-04:00,144.8699951171875,144.8699951171875,144.8699951171875,144.8699951171875,306,0.0,0.0
2024-06-12 13:52:00-04:00,144.83999633789062,144.83999633789062,144.83999633789062,144.83999633789062,335,0.0,0.0
2024-06-12 13:55:00-04:00,144.89500427246094,144.89500427246094,144.89500427246094,144.89500427246094,412,0.0,0.0
2024-06-12 13:58:00-04:00,144.83169555664062,144.85000610351562,144.83169555664062,144.85000610351562,530,0.0,0.0
2024-06-12 14:00:00-04:00,144.85000610351562,144.85000610351562,144.33999633789062,144.33999633789062,2338,0.0,0.0
2024-06-12 14:01:00-04:00,144.2100067138672,144.42999267578125,144.07000732421875,144.42999267578125,3089,0.0,0.0
2024-06-12 14:10:00-04:00,145.08990478515625,145.08990478515625,145.08990478515625,145.08990478515625,719,0.0,0.0
2024-06-12 14:13:00-04:00,144.80999755859375,144.80999755859375,144.80999755859375,144.80999755859375,150,0.0,0.0
2024-06-12 14:15:00-04:00,144.82000732421875,144.82000732421875,144.82000732421875,144.82000732421875,162,0.0,0.0
2024-06-12 14:16:00-04:00,145.0800018310547,145.08999633789062,144.97999572753906,144.97999572753906,1217,0.0,0.0
2024-06-12 14:17:00-04:00,144.9949951171875,144.9949951171875,144.9949951171875,144.9949951171875,141,0.0,0.0
2024-06-12 14:19:00-04:00,144.9949951171875,144.9949951171875,144.9949951171875,144.9949951171875,600,0.0,0.0
2024-06-12 14:21:00-04:00,144.82000732421875,144.82000732421875,144.82000732421875,144.82000732421875,1124,0.0,0.0
2024-06-12 14:22:00-04:00,144.89300537109375,144.89300537109375,144.89300537109375,144.89300537109375,590,0.0,0.0
2024-06-12 14:24:00-04:00,144.94000244140625,144.94000244140625,144.94000244140625,144.94000244140625,1040,0.0,0.0
2024-06-12 14:27:00-04:00,145.0500030517578,145.0500030517578,145.0500030517578,145.0500030517578,894,0.0,0.0
2024-06-12 14:31:00-04:00,145.16000366210938,145.16000366210938,145.16000366210938,145.16000366210938,669,0.0,0.0
2024-06-12 14:32:00-04:00,145.07000732421875,145.07000732421875,145.07000732421875,145.07000732421875,439,0.0,0.0
2024-06-12 14:36:00-04:00,145.19500732421875,145.19500732421875,145.19500732421875,145.19500732421875,270,0.0,0.0
2024-06-12 14:39:00-04:00,145.19500732421875,145.19500732421875,145.19500732421875,145.19500732421875,729,0.0,0.0
2024-06-12 14:42:00-04:00,145.21499633789062,145.21499633789062,145.05999755859375,145.05999755859375,7070,0.0,0.0
2024-06-12 14:44:00-04:00,145.0749969482422,145.0749969482422,145.0749969482422,145.0749969482422,277,0.0,0.0
2024-06-12 14:46:00-04:00,145.0749969482422,145.0749969482422,145.0749969482422,145.0749969482422,469,0.0,0.0
2024-06-12 14:50:00-04:00,145.05999755859375,145.05999755859375,145.05999755859375,145.05999755859375,201,0.0,0.0
2024-06-12 14:51:00-04:00,145.11000061035156,145.2100067138672,145.11000061035156,145.13999938964844,1046,0.0,0.0
2024-06-12 14:56:00-04:00,145.25999450683594,145.25999450683594,145.25999450683594,145.25999450683594,299,0.0,0.0
2024-06-12 14:57:00-04:00,145.2449951171875,145.38999938964844,145.2449951171875,145.38999938964844,557,0.0,0.0
2024-06-12 15:01:00-04:00,145.44000244140625,145.44000244140625,145.44000244140625,145.44000244140625,629,0.0,0.0
2024-06-12 15:04:00-04:00,145.4949951171875,145.4949951171875,145.49000549316406,145.49000549316406,627,0.0,0.0
2024-06-12 15:06:00-04:00,145.36000061035156,145.36000061035156,145.36000061035156,145.36000061035156,689,0.0,0.0
2024-06-12 15:07:00-04:00,145.14999389648438,145.15499877929688,145.14999389648438,145.15499877929688,462,0.0,0.0
2024-06-12 15:10:00-04:00,145.1699981689453,145.302001953125,145.13999938964844,145.302001953125,3537,0.0,0.0
2024-06-12 15:14:00-04:00,145.0,145.0,145.0,145.0,189,0.0,0.0
2024-06-12 15:16:00-04:00,145.11000061035156,145.11000061035156,145.07000732421875,145.07000732421875,576,0.0,0.0
2024-06-12 15:19:00-04:00,145.14500427246094,145.14500427246094,145.14500427246094,145.14500427246094,494,0.0,0.0
2024-06-12 15:21:00-04:00,145.14999389648438,145.14999389648438,145.14999389648438,145.14999389648438,644,0.0,0.0
2024-06-12 15:22:00-04:00,145.14999389648438,145.3300018310547,145.14999389648438,145.25,1807,0.0,0.0
2024-06-12 15:23:00-04:00,145.25,145.2899932861328,145.25,145.2899932861328,381,0.0,0.0
2024-06-12 15:24:00-04:00,145.25,145.36000061035156,145.19000244140625,145.24000549316406,2104,0.0,0.0
2024-06-12 15:25:00-04:00,145.19000244140625,145.2449951171875,145.19000244140625,145.2449951171875,606,0.0,0.0
2024-06-12 15:26:00-04:00,145.2899932861328,145.3000030517578,145.2899932861328,145.2899932861328,840,0.0,0.0
2024-06-12 15:27:00-04:00,145.30999755859375,145.3800048828125,145.17999267578125,145.3800048828125,8989,0.0,0.0
2024-06-12 15:29:00-04:00,145.2550048828125,145.2550048828125,145.2550048828125,145.2550048828125,284,0.0,0.0
2024-06-12 15:30:00-04:00,145.3300018310547,145.39999389648438,145.3300018310547,145.38999938964844,1100,0.0,0.0
2024-06-12 15:31:00-04:00,145.47999572753906,145.47999572753906,145.30999755859375,145.36000061035156,1454,0.0,0.0
2024-06-12 15:34:00-04:00,145.5,145.63999938964844,145.5,145.63999938964844,721,0.0,0.0
2024-06-12 15:35:00-04:00,145.5800018310547,145.5800018310547,145.5,145.53500366210938,507,0.0,0.0
2024-06-12 15:36:00-04:00,145.6300048828125,145.6300048828125,145.6300048828125,145.6300048828125,673,0.0,0.0
2024-06-12 15:40:00-04:00,145.42999267578125,145.42999267578125,145.42999267578125,145.42999267578125,938,0.0,0.0
2024-06-12 15:42:00-04:00,145.50999450683594,145.50999450683594,145.50999450683594,145.50999450683594,658,0.0,0.0
2024-06-12 15:44:00-04:00,145.5399932861328,145.6699981689453,145.5399932861328,145.6699981689453,1352,0.0,0.0
2024-06-12 15:45:00-04:00,145.6649932861328,145.6699981689453,145.6649932861328,145.6699981689453,865,0.0,0.0
2024-06-12 15:46:00-04:00,145.64999389648438,145.65499877929688,145.64999389648438,145.65499877929688,393,0.0,0.0
2024-06-12 15:47:00-04:00,145.65499877929688,145.65499877929688,145.61000061035156,145.63999938964844,1726,0.0,0.0
2024-06-12 15:48:00-04:00,145.68499755859375,145.68499755859375,145.61000061035156,145.63250732421875,2117,0.0,0.0
2024-06-12 15:49:00-04:00,145.58999633789062,145.6199951171875,145.55999755859375,145.61000061035156,3334,0.0,0.0
2024-06-12 15:50:00-04:00,145.55999755859375,145.69500732421875,145.55999755859375,145.6750030517578,2675,0.0,0.0
2024-06-12 15:51:00-04:00,145.69000244140625,145.83999633789062,145.69000244140625,145.83999633789062,2919,0.0,0.0
2024-06-12 15:52:00-04:00,145.9149932861328,145.99000549316406,145.9149932861328,145.99000549316406,1754,0.0,0.0
2024-06-12 15:53:00-04:00,145.99000549316406,146.10499572753906,145.99000549316406,146.10499572753906,1784,0.0,0.0
2024-06-12 15:54:00-04:00,146.08999633789062,146.13999938964844,146.08999633789062,146.09500122070312,1300,0.0,0.0
2024-06-12 15:55:00-04:00,146.13999938964844,146.18499755859375,145.86000061035156,145.86000061035156,9483,0.0,0.0
2024-06-12 15:56:00-04:00,145.8699951171875,145.9199981689453,145.8699951171875,145.89999389648438,2986,0.0,0.0
2024-06-12 15:57:00-04:00,145.93499755859375,145.93499755859375,145.88999938964844,145.89999389648438,3415,0.0,0.0
2024-06-12 15:58:00-04:00,145.89999389648438,145.94000244140625,145.89999389648438,145.92999267578125,4302,0.0,0.0
2024-06-12 15:59:00-04:00,145.9199981689453,145.9499969482422,145.83999633789062,145.83999633789062,15136,0.0,0.0
2024-06-13 09:30:00-04:00,145.88999938964844,145.88999938964844,145.88999938964844,145.88999938964844,1867,0.0,0.0
2024-06-13 09:39:00-04:00,145.8699951171875,146.09500122070312,145.8300018310547,145.8300018310547,1163,0.0,0.0
2024-06-13 09:44:00-04:00,145.8300018310547,145.8300018310547,145.8300018310547,145.8300018310547,633,0.0,0.0
2024-06-13 09:45:00-04:00,145.52999877929688,145.52999877929688,145.52999877929688,145.52999877929688,158,0.0,0.0
2024-06-13 09:47:00-04:00,145.5449981689453,145.5449981689453,145.5449981689453,145.5449981689453,223,0.0,0.0
2024-06-13 09:53:00-04:00,145.39500427246094,145.39500427246094,145.39500427246094,145.39500427246094,236,0.0,0.0
2024-06-13 10:00:00-04:00,145.24000549316406,145.24000549316406,145.24000549316406,145.24000549316406,470,0.0,0.0
2024-06-13 10:02:00-04:00,145.30499267578125,145.34500122070312,145.22000122070312,145.22000122070312,798,0.0,0.0
2024-06-13 10:04:00-04:00,145.34500122070312,145.34500122070312,145.34500122070312,145.34500122070312,175,0.0,0.0
2024-06-13 10:06:00-04:00,145.39999389648438,145.39999389648438,145.25,145.30999755859375,1217,0.0,0.0
2024-06-13 10:07:00-04:00,145.4199981689453,145.4199981689453,145.4199981689453,145.4199981689453,566,0.0,0.0
2024-06-13 10:11:00-04:00,145.4199981689453,145.44000244140625,145.4199981689453,145.44000244140625,817,0.0,0.0
2024-06-13 10:12:00-04:00,145.47000122070312,145.47000122070312,145.47000122070312,145.47000122070312,117,0.0,0.0
2024-06-13 10:13:00-04:00,145.47500610351562,145.47500610351562,145.47500610351562,145.47500610351562,139,0.0,0.0
2024-06-13 10:14:00-04:00,145.57000732421875,145.57000732421875,145.57000732421875,145.57000732421875,344,0.0,0.0
2024-06-13 10:18:00-04:00,145.50999450683594,145.50999450683594,145.50999450683594,145.50999450683594,110,0.0,0.0
2024-06-13 10:19:00-04:00,145.39999389648438,145.39999389648438,145.38499450683594,145.38499450683594,945,0.0,0.0
2024-06-13 10:22:00-04:00,145.25,145.25,145.22999572753906,145.22999572753906,666,0.0,0.0
2024-06-13 10:23:00-04:00,145.125,145.125,145.125,145.125,184,0.0,0.0
2024-06-13 10:24:00-04:00,145.24000549316406,145.24000549316406,145.2100067138672,145.2100067138672,791,0.0,0.0
2024-06-13 10:26:00-04:00,145.12750244140625,145.12750244140625,145.12750244140625,145.12750244140625,516,0.0,0.0
2024-06-13 10:30:00-04:00,145.16000366210938,145.16000366210938,145.16000366210938,145.16000366210938,314,0.0,0.0
2024-06-13 10:31:00-04:00,145.1479949951172,145.16000366210938,145.1479949951172,145.16000366210938,315,0.0,0.0
2024-06-13 10:32:00-04:00,145.14999389648438,145.14999389648438,145.14999389648438,145.14999389648438,491,0.0,0.0
2024-06-13 10:33:00-04:00,145.10000610351562,145.10000610351562,145.10000610351562,145.10000610351562,131,0.0,0.0
2024-06-13 10:34:00-04:00,145.07000732421875,145.07000732421875,145.07000732421875,145.07000732421875,115,0.0,0.0
2024-06-13 10:35:00-04:00,145.17999267578125,145.17999267578125,145.0800018310547,145.0800018310547,648,0.0,0.0
2024-06-13 10:36:00-04:00,145.14999389648438,145.14999389648438,145.08999633789062,145.08999633789062,600,0.0,0.0
2024-06-13 10:37:00-04:00,145.1699981689453,145.25,145.1699981689453,145.23500061035156,982,0.0,0.0
2024-06-13 10:40:00-04:00,145.19000244140625,145.22999572753906,145.16000366210938,145.22999572753906,1952,0.0,0.0
2024-06-13 10:41:00-04:00,145.2100067138672,145.2100067138672,145.1999969482422,145.1999969482422,304,0.0,0.0
2024-06-13 10:43:00-04:00,145.0399932861328,145.11000061035156,145.0399932861328,145.11000061035156,504,0.0,0.0
2024-06-13 10:48:00-04:00,145.02000427246094,145.02000427246094,145.02000427246094,145.02000427246094,693,0.0,0.0
2024-06-13 10:51:00-04:00,145.17999267578125,145.1999969482422,145.17999267578125,145.1999969482422,829,0.0,0.0
2024-06-13 10:52:00-04:00,145.2899932861328,145.2899932861328,145.22999572753906,145.22999572753906,650,0.0,0.0
2024-06-13 10:59:00-04:00,145.32000732421875,145.32000732421875,145.29249572753906,145.29249572753906,250,0.0,0.0
2024-06-13 11:00:00-04:00,145.2949981689453,145.2949981689453,145.2949981689453,145.2949981689453,270,0.0,0.0
2024-06-13 11:01:00-04:00,145.22999572753906,145.22999572753906,145.1699981689453,145.1699981689453,473,0.0,0.0
2024-06-13 11:02:00-04:00,145.33999633789062,145.33999633789062,145.33999633789062,145.33999633789062,583,0.0,0.0
2024-06-13 11:07:00-04:00,145.32000732421875,145.41000366210938,145.32000732421875,145.41000366210938,768,0.0,0.0
2024-06-13 11:08:00-04:00,145.47999572753906,145.48500061035156,145.47999572753906,145.48500061035156,270,0.0,0.0
2024-06-13 11:09:00-04:00,145.49000549316406,145.5,145.47000122070312,145.5,841,0.0,0.0
2024-06-13 11:12:00-04:00,145.42999267578125,145.42999267578125,145.42999267578125,145.42999267578125,511,0.0,0.0
2024-06-13 11:18:00-04:00,145.43499755859375,145.43499755859375,145.35000610351562,145.35000610351562,930,0.0,0.0
2024-06-13 11:20:00-04:00,145.4199981689453,145.4199981689453,145.4199981689453,145.4199981689453,1023,0.0,0.0
2024-06-13 11:23:00-04:00,145.5749969482422,145.5749969482422,145.5749969482422,145.5749969482422,546,0.0,0.0
2024-06-13 11:30:00-04:00,145.61000061035156,145.61000061035156,145.61000061035156,145.61000061035156,168,0.0,0.0
2024-06-13 11:31:00-04:00,145.74000549316406,145.74000549316406,145.74000549316406,145.74000549316406,159,0.0,0.0
2024-06-13 11:33:00-04:00,145.65499877929688,145.65499877929688,145.65499877929688,145.65499877929688,279,0.0,0.0
2024-06-13 11:35:00-04:00,145.72999572753906,145.74000549316406,145.72999572753906,145.74000549316406,1279,0.0,0.0
2024-06-13 11:37:00-04:00,145.72000122070312,145.72000122070312,145.6999969482422,145.6999969482422,1010,0.0,0.0
2024-06-13 11:46:00-04:00,145.69500732421875,145.69500732421875,145.69500732421875,145.69500732421875,282,0.0,0.0
2024-06-13 11:49:00-04:00,145.72000122070312,145.72000122070312,145.72000122070312,145.72000122070312,456,0.0,0.0
2024-06-13 11:52:00-04:00,145.7100067138672,145.7100067138672,145.7100067138672,145.7100067138672,684,0.0,0.0
2024-06-13 11:56:00-04:00,145.71499633789062,145.71499633789062,145.67999267578125,145.67999267578125,604,0.0,0.0
2024-06-13 11:59:00-04:00,145.66000366210938,145.66000366210938,145.66000366210938,145.66000366210938,433,0.0,0.0
2024-06-13 12:00:00-04:00,145.57000732421875,145.64500427246094,145.57000732421875,145.57000732421875,1414,0.0,0.0
2024-06-13 12:08:00-04:00,145.6199951171875,145.63999938964844,145.5800018310547,145.58999633789062,984,0.0,0.0
2024-06-13 12:09:00-04:00,145.49000549316406,145.5500030517578,145.49000549316406,145.5500030517578,758,0.0,0.0
2024-06-13 12:12:00-04:00,145.42999267578125,145.48500061035156,145.42999267578125,145.48500061035156,836,0.0,0.0
2024-06-13 12:13:00-04:00,145.5050048828125,145.5050048828125,145.47900390625,145.47900390625,606,0.0,0.0
2024-06-13 12:14:00-04:00,145.5500030517578,145.5500030517578,145.5500030517578,145.5500030517578,630,0.0,0.0
2024-06-13 12:15:00-04:00,145.5800018310547,145.60000610351562,145.5800018310547,145.60000610351562,1200,0.0,0.0
2024-06-13 12:20:00-04:00,145.66000366210938,145.66000366210938,145.66000366210938,145.66000366210938,185,0.0,0.0
2024-06-13 12:21:00-04:00,145.72000122070312,145.72000122070312,145.72000122070312,145.72000122070312,204,0.0,0.0
2024-06-13 12:22:00-04:00,145.6199951171875,145.65499877929688,145.5800018310547,145.5800018310547,1539,0.0,0.0
2024-06-13 12:26:00-04:00,145.64999389648438,145.68499755859375,145.64999389648438,145.68499755859375,471,0.0,0.0
2024-06-13 12:29:00-04:00,145.6300048828125,145.63999938964844,145.6199951171875,145.6199951171875,1300,0.0,0.0
2024-06-13 12:31:00-04:00,145.5399932861328,145.80999755859375,145.5399932861328,145.77000427246094,1960,0.0,0.0
2024-06-13 12:37:00-04:00,145.8350067138672,145.8350067138672,145.8350067138672,145.8350067138672,641,0.0,0.0
2024-06-13 12:40:00-04:00,145.89999389648438,145.89999389648438,145.89999389648438,145.89999389648438,551,0.0,0.0
2024-06-13 12:44:00-04:00,145.85000610351562,145.85000610351562,145.83999633789062,145.83999633789062,573,0.0,0.0
2024-06-13 12:48:00-04:00,145.86000061035156,145.86000061035156,145.86000061035156,145.86000061035156,364,0.0,0.0
2024-06-13 12:50:00-04:00,145.8800048828125,145.8800048828125,145.8800048828125,145.8800048828125,497,0.0,0.0
2024-06-13 12:51:00-04:00,145.97999572753906,145.97999572753906,145.97999572753906,145.97999572753906,573,0.0,0.0
2024-06-13 12:53:00-04:00,146.02999877929688,146.02999877929688,146.00999450683594,146.00999450683594,336,0.0,0.0
2024-06-13 12:55:00-04:00,145.97999572753906,145.97999572753906,145.97999572753906,145.97999572753906,510,0.0,0.0
2024-06-13 13:00:00-04:00,145.91000366210938,145.91000366210938,145.91000366210938,145.91000366210938,400,0.0,0.0
2024-06-13 13:03:00-04:00,145.9600067138672,145.9600067138672,145.9600067138672,145.9600067138672,216,0.0,0.0
2024-06-13 13:04:00-04:00,146.0050048828125,146.0050048828125,146.0050048828125,146.0050048828125,554,0.0,0.0
2024-06-13 13:09:00-04:00,146.0500030517578,146.0500030517578,146.0500030517578,146.0500030517578,1239,0.0,0.0
2024-06-13 13:10:00-04:00,146.0399932861328,146.0399932861328,146.0399932861328,146.0399932861328,105,0.0,0.0
2024-06-13 13:11:00-04:00,146.0500030517578,146.0500030517578,146.0500030517578,146.0500030517578,241,0.0,0.0
2024-06-13 13:13:00-04:00,146.0749969482422,146.0749969482422,146.0749969482422,146.0749969482422,209,0.0,0.0
2024-06-13 13:15:00-04:00,146.02000427246094,146.02000427246094,146.02000427246094,146.02000427246094,932,0.0,0.0
2024-06-13 13:24:00-04:00,146.10000610351562,146.10000610351562,145.98060607910156,145.98060607910156,1205,0.0,0.0
2024-06-13 13:29:00-04:00,146.11000061035156,146.1300048828125,146.11000061035156,146.1300048828125,1013,0.0,0.0
2024-06-13 13:32:00-04:00,146.18499755859375,146.18499755859375,146.18499755859375,146.18499755859375,301,0.0,0.0
2024-06-13 13:35:00-04:00,146.19749450683594,146.19749450683594,146.19749450683594,146.19749450683594,520,0.0,0.0
2024-06-13 13:38:00-04:00,146.25999450683594,146.25999450683594,146.2100067138672,146.2100067138672,874,0.0,0.0
2024-06-13 13:39:00-04:00,146.27999877929688,146.27999877929688,146.27999877929688,146.27999877929688,280,0.0,0.0
2024-06-13 13:41:00-04:00,146.25999450683594,146.30999755859375,146.23500061035156,146.30999755859375,1340,0.0,0.0
2024-06-13 13:42:00-04:00,146.16839599609375,146.16839599609375,146.16839599609375,146.16839599609375,448,0.0,0.0
2024-06-13 13:51:00-04:00,146.2100067138672,146.2100067138672,146.2100067138672,146.2100067138672,445,0.0,0.0
2024-06-13 13:52:00-04:00,146.22000122070312,146.22000122070312,146.1999969482422,146.1999969482422,1293,0.0,0.0
2024-06-13 13:54:00-04:00,146.17999267578125,146.17999267578125,146.07000732421875,146.1199951171875,1244,0.0,0.0
2024-06-13 13:57:00-04:00,145.99000549316406,145.99000549316406,145.99000549316406,145.99000549316406,507,0.0,0.0
2024-06-13 14:04:00-04:00,146.1074981689453,146.35000610351562,146.1074981689453,146.35000610351562,3060,0.0,0.0
2024-06-13 14:09:00-04:00,146.42999267578125,146.4499969482422,146.3699951171875,146.4199981689453,2404,0.0,0.0
2024-06-13 14:15:00-04:00,146.27000427246094,146.31500244140625,146.27000427246094,146.27999877929688,745,0.0,0.0
2024-06-13 14:18:00-04:00,146.2550048828125,146.2550048828125,146.2550048828125,146.2550048828125,528,0.0,0.0
2024-06-13 14:23:00-04:00,146.22999572753906,146.22999572753906,146.22999572753906,146.22999572753906,263,0.0,0.0
2024-06-13 14:24:00-04:00,146.23500061035156,146.23500061035156,146.23500061035156,146.23500061035156,276,0.0,0.0
2024-06-13 14:28:00-04:00,146.13999938964844,146.13999938964844,146.13999938964844,146.13999938964844,368,0.0,0.0
2024-06-13 14:31:00-04:00,146.14999389648438,146.1999969482422,146.14999389648438,146.1999969482422,471,0.0,0.0
2024-06-13 14:33:00-04:00,146.19000244140625,146.19000244140625,146.19000244140625,146.19000244140625,723,0.0,0.0
2024-06-13 14:37:00-04:00,146.15809631347656,146.24000549316406,146.1300048828125,146.24000549316406,1132,0.0,0.0
2024-06-13 14:38:00-04:00,146.19000244140625,146.19000244140625,146.18499755859375,146.18499755859375,739,0.0,0.0
2024-06-13 14:39:00-04:00,146.1199951171875,146.1750030517578,146.02999877929688,146.1750030517578,2098,0.0,0.0
2024-06-13 14:42:00-04:00,146.14999389648438,146.36500549316406,146.1199951171875,146.36500549316406,3413,0.0,0.0
2024-06-13 14:45:00-04:00,146.2100067138672,146.2100067138672,146.2100067138672,146.2100067138672,244,0.0,0.0
2024-06-13 14:49:00-04:00,146.22000122070312,146.2899932861328,146.22000122070312,146.2899932861328,339,0.0,0.0
2024-06-13 14:50:00-04:00,146.24000549316406,146.24000549316406,146.19000244140625,146.19000244140625,1393,0.0,0.0
2024-06-13 14:57:00-04:00,146.27000427246094,146.36000061035156,146.27000427246094,146.36000061035156,1757,0.0,0.0
2024-06-13 14:59:00-04:00,146.3000030517578,146.30999755859375,146.22999572753906,146.27000427246094,993,0.0,0.0
2024-06-13 15:02:00-04:00,146.24000549316406,146.3000030517578,146.24000549316406,146.3000030517578,1049,0.0,0.0
2024-06-13 15:05:00-04:00,146.30999755859375,146.30999755859375,146.30999755859375,146.30999755859375,1630,0.0,0.0
2024-06-13 15:11:00-04:00,146.39500427246094,146.39500427246094,146.39500427246094,146.39500427246094,301,0.0,0.0
2024-06-13 15:12:00-04:00,146.4281005859375,146.4281005859375,146.4281005859375,146.4281005859375,354,0.0,0.0
2024-06-13 15:14:00-04:00,146.3300018310547,146.3300018310547,146.3300018310547,146.3300018310547,730,0.0,0.0
2024-06-13 15:15:00-04:00,146.5,146.52999877929688,146.5,146.52999877929688,1578,0.0,0.0
2024-06-13 15:16:00-04:00,146.47000122070312,146.47000122070312,146.46499633789062,146.46499633789062,1296,0.0,0.0
2024-06-13 15:19:00-04:00,146.4199981689453,146.4199981689453,146.4199981689453,146.4199981689453,633,0.0,0.0
2024-06-13 15:20:00-04:00,146.49000549316406,146.49000549316406,146.4600067138672,146.47999572753906,866,0.0,0.0
2024-06-13 15:21:00-04:00,146.44000244140625,146.47500610351562,146.375,146.375,1897,0.0,0.0
2024-06-13 15:23:00-04:00,146.3699951171875,146.40499877929688,146.3699951171875,146.40499877929688,658,0.0,0.0
2024-06-13 15:26:00-04:00,146.35000610351562,146.35000610351562,146.35000610351562,146.35000610351562,356,0.0,0.0
2024-06-13 15:27:00-04:00,146.36000061035156,146.36000061035156,146.36000061035156,146.36000061035156,908,0.0,0.0
2024-06-13 15:30:00-04:00,146.32000732421875,146.3300018310547,146.08999633789062,146.08999633789062,1965,0.0,0.0
2024-06-13 15:32:00-04:00,146.1999969482422,146.2100067138672,146.14999389648438,146.14999389648438,2313,0.0,0.0
2024-06-13 15:34:00-04:00,146.11000061035156,146.11000061035156,146.11000061035156,146.11000061035156,3266,0.0,0.0
2024-06-13 15:39:00-04:00,146.39999389648438,146.39999389648438,146.39999389648438,146.39999389648438,1220,0.0,0.0
2024-06-13 15:40:00-04:00,146.3699951171875,146.3699951171875,146.3699951171875,146.3699951171875,1212,0.0,0.0
2024-06-13 15:41:00-04:00,146.3699951171875,146.3699951171875,146.2899932861328,146.2899932861328,1460,0.0,0.0
2024-06-13 15:42:00-04:00,146.27999877929688,146.27999877929688,146.1699981689453,146.2100067138672,1203,0.0,0.0
2024-06-13 15:43:00-04:00,146.16000366210938,146.22999572753906,146.16000366210938,146.2050018310547,1613,0.0,0.0
2024-06-13 15:44:00-04:00,146.25,146.25,146.25,146.25,264,0.0,0.0
2024-06-13 15:45:00-04:00,146.23500061035156,146.25999450683594,146.21499633789062,146.25999450683594,1655,0.0,0.0
2024-06-13 15:46:00-04:00,146.24000549316406,146.24000549316406,146.22999572753906,146.22999572753906,1347,0.0,0.0
2024-06-13 15:47:00-04:00,146.19000244140625,146.22000122070312,146.1699981689453,146.22000122070312,1663,0.0,0.0
2024-06-13 15:48:00-04:00,146.1300048828125,146.1300048828125,146.07000732421875,146.10000610351562,1292,0.0,0.0
2024-06-13 15:50:00-04:00,146.07000732421875,146.07000732421875,146.0,146.0,2140,0.0,0.0
2024-06-13 15:51:00-04:00,146.02999877929688,146.1649932861328,146.02999877929688,146.08999633789062,3783,0.0,0.0
2024-06-13 15:52:00-04:00,146.10000610351562,146.125,146.10000610351562,146.1199951171875,2445,0.0,0.0
2024-06-13 15:53:00-04:00,146.10000610351562,146.10000610351562,145.99000549316406,146.07000732421875,5245,0.0,0.0
2024-06-13 15:54:00-04:00,146.05999755859375,146.05999755859375,145.99000549316406,146.00999450683594,2738,0.0,0.0
2024-06-13 15:55:00-04:00,145.9600067138672,145.98500061035156,145.77999877929688,145.8699951171875,7895,0.0,0.0
2024-06-13 15:56:00-04:00,145.88499450683594,146.0500030517578,145.88499450683594,146.00999450683594,5697,0.0,0.0
2024-06-13 15:57:00-04:00,146.0500030517578,146.07000732421875,146.00999450683594,146.02000427246094,3833,0.0,0.0
2024-06-13 15:58:00-04:00,146.0,146.02999877929688,145.91000366210938,145.91000366210938,5662,0.0,0.0
2024-06-13 15:59:00-04:00,145.88999938964844,145.92999267578125,145.77000427246094,145.8000030517578,25103,0.0,0.0
2024-06-14 09:30:00-04:00,145.08999633789062,145.08999633789062,145.08999633789062,145.08999633789062,1468,0.0,0.0
2024-06-14 09:35:00-04:00,145.375,145.375,145.375,145.375,100,0.0,0.0
2024-06-14 09:36:00-04:00,145.3800048828125,145.3800048828125,145.3800048828125,145.3800048828125,201,0.0,0.0
2024-06-14 09:38:00-04:00,145.375,145.375,145.375,145.375,157,0.0,0.0
2024-06-14 09:47:00-04:00,145.09500122070312,145.09500122070312,145.09500122070312,145.09500122070312,140,0.0,0.0
2024-06-14 09:51:00-04:00,145.0749969482422,145.0749969482422,144.77999877929688,145.0749969482422,676,0.0,0.0
2024-06-14 09:54:00-04:00,145.0399932861328,145.0399932861328,144.75999450683594,144.77999877929688,2988,0.0,0.0
2024-06-14 10:02:00-04:00,144.6300048828125,144.6300048828125,144.44000244140625,144.47000122070312,693,0.0,0.0
2024-06-14 10:03:00-04:00,144.22000122070312,144.5399932861328,144.22000122070312,144.5399932861328,760,0.0,0.0
2024-06-14 10:06:00-04:00,144.1999969482422,144.1999969482422,144.1999969482422,144.1999969482422,491,0.0,0.0
2024-06-14 10:15:00-04:00,144.34500122070312,144.35000610351562,144.16000366210938,144.16000366210938,378,0.0,0.0
2024-06-14 10:16:00-04:00,144.3300018310547,144.3300018310547,144.3300018310547,144.3300018310547,617,0.0,0.0
2024-06-14 10:20:00-04:00,143.94000244140625,144.13499450683594,143.94000244140625,144.13499450683594,844,0.0,0.0
2024-06-14 10:26:00-04:00,144.05499267578125,144.05499267578125,144.05499267578125,144.05499267578125,280,0.0,0.0
2024-06-14 10:30:00-04:00,144.0800018310547,144.0800018310547,144.0,144.0,1010,0.0,0.0
2024-06-14 10:33:00-04:00,143.8699951171875,143.9499969482422,143.75,143.82000732421875,1404,0.0,0.0
2024-06-14 10:34:00-04:00,143.82000732421875,143.8249969482422,143.82000732421875,143.8249969482422,426,0.0,0.0
2024-06-14 10:36:00-04:00,143.8000030517578,143.8000030517578,143.67750549316406,143.69500732421875,457,0.0,0.0
2024-06-14 10:38:00-04:00,143.77000427246094,143.77000427246094,143.77000427246094,143.77000427246094,349,0.0,0.0
2024-06-14 10:44:00-04:00,143.8800048828125,143.8800048828125,143.8800048828125,143.8800048828125,266,0.0,0.0
2024-06-14 10:48:00-04:00,144.0399932861328,144.0399932861328,143.9600067138672,143.9600067138672,503,0.0,0.0
2024-06-14 10:52:00-04:00,144.22000122070312,144.22000122070312,144.22000122070312,144.22000122070312,260,0.0,0.0
2024-06-14 10:53:00-04:00,144.11000061035156,144.22000122070312,144.05999755859375,144.22000122070312,1200,0.0,0.0
2024-06-14 11:01:00-04:00,144.47999572753906,144.47999572753906,144.25999450683594,144.25999450683594,743,0.0,0.0
2024-06-14 11:02:00-04:00,144.2899932861328,144.2899932861328,144.2899932861328,144.2899932861328,170,0.0,0.0
2024-06-14 11:03:00-04:00,144.29750061035156,144.30499267578125,144.29750061035156,144.30499267578125,339,0.0,0.0
2024-06-14 11:05:00-04:00,144.30499267578125,144.30499267578125,144.30499267578125,144.30499267578125,253,0.0,0.0
2024-06-14 11:08:00-04:00,144.30499267578125,144.30499267578125,144.30499267578125,144.30499267578125,129,0.0,0.0
2024-06-14 11:11:00-04:00,144.30499267578125,144.30499267578125,144.30499267578125,144.30499267578125,195,0.0,0.0
2024-06-14 11:13:00-04:00,144.16000366210938,144.16000366210938,144.16000366210938,144.16000366210938,333,0.0,0.0
2024-06-14 11:14:00-04:00,144.2899932861328,144.2899932861328,144.16000366210938,144.16000366210938,1294,0.0,0.0
2024-06-14 11:18:00-04:00,144.0800018310547,144.16000366210938,144.02000427246094,144.09500122070312,2136,0.0,0.0
2024-06-14 11:19:00-04:00,144.10499572753906,144.10499572753906,144.10499572753906,144.10499572753906,425,0.0,0.0
2024-06-14 11:21:00-04:00,144.25999450683594,144.25999450683594,144.1999969482422,144.1999969482422,806,0.0,0.0
2024-06-14 11:24:00-04:00,144.36000061035156,144.36000061035156,144.36000061035156,144.36000061035156,207,0.0,0.0
2024-06-14 11:27:00-04:00,144.4199981689453,144.4199981689453,144.4199981689453,144.4199981689453,138,0.0,0.0
2024-06-14 11:29:00-04:00,144.44500732421875,144.44500732421875,144.44500732421875,144.44500732421875,140,0.0,0.0
2024-06-14 11:30:00-04:00,144.30999755859375,144.30999755859375,144.30999755859375,144.30999755859375,272,0.0,0.0
2024-06-14 11:36:00-04:00,144.39999389648438,144.39999389648438,144.39999389648438,144.39999389648438,156,0.0,0.0
2024-06-14 11:40:00-04:00,144.44500732421875,144.44500732421875,144.44500732421875,144.44500732421875,410,0.0,0.0
2024-06-14 11:48:00-04:00,144.33999633789062,144.33999633789062,144.00999450683594,144.00999450683594,2397,0.0,0.0
2024-06-14 11:53:00-04:00,144.0,144.0,144.0,144.0,217,0.0,0.0
2024-06-14 11:54:00-04:00,144.0749969482422,144.0749969482422,144.0749969482422,144.0749969482422,497,0.0,0.0
2024-06-14 11:57:00-04:00,144.34710693359375,144.34710693359375,144.1199951171875,144.1199951171875,506,0.0,0.0
2024-06-14 11:59:00-04:00,144.16000366210938,144.16000366210938,144.16000366210938,144.16000366210938,124,0.0,0.0
2024-06-14 12:00:00-04:00,144.11000061035156,144.11000061035156,144.11000061035156,144.11000061035156,706,0.0,0.0
2024-06-14 12:05:00-04:00,144.23500061035156,144.23500061035156,144.23500061035156,144.23500061035156,226,0.0,0.0
2024-06-14 12:10:00-04:00,144.19500732421875,144.25,144.16000366210938,144.25,1829,0.0,0.0
2024-06-14 12:15:00-04:00,144.46499633789062,144.46499633789062,144.46499633789062,144.46499633789062,100,0.0,0.0
2024-06-14 12:16:00-04:00,144.47500610351562,144.47500610351562,144.47500610351562,144.47500610351562,166,0.0,0.0
2024-06-14 12:17:00-04:00,144.47999572753906,144.47999572753906,144.47999572753906,144.47999572753906,207,0.0,0.0
2024-06-14 12:18:00-04:00,144.50999450683594,144.50999450683594,144.50999450683594,144.50999450683594,129,0.0,0.0
2024-06-14 12:19:00-04:00,144.4199981689453,144.4199981689453,144.4199981689453,144.4199981689453,294,0.0,0.0
2024-06-14 12:24:00-04:00,144.5500030517578,144.5500030517578,144.5500030517578,144.5500030517578,454,0.0,0.0
2024-06-14 12:26:00-04:00,144.3699951171875,144.42250061035156,144.3699951171875,144.42250061035156,338,0.0,0.0
2024-06-14 12:28:00-04:00,144.41000366210938,144.41000366210938,144.41000366210938,144.41000366210938,383,0.0,0.0
2024-06-14 12:38:00-04:00,144.4250030517578,144.4250030517578,144.4250030517578,144.4250030517578,379,0.0,0.0
2024-06-14 12:39:00-04:00,144.49000549316406,144.49000549316406,144.42999267578125,144.42999267578125,283,0.0,0.0
2024-06-14 12:40:00-04:00,144.49000549316406,144.49000549316406,144.49000549316406,144.49000549316406,362,0.0,0.0
2024-06-14 12:46:00-04:00,144.5,144.5,144.5,144.5,331,0.0,0.0
2024-06-14 12:51:00-04:00,144.53500366210938,144.55999755859375,144.53500366210938,144.55999755859375,867,0.0,0.0
2024-06-14 12:54:00-04:00,144.5500030517578,144.5500030517578,144.5500030517578,144.5500030517578,1255,0.0,0.0
2024-06-14 13:05:00-04:00,144.5500030517578,144.5500030517578,144.52000427246094,144.52000427246094,201,0.0,0.0
2024-06-14 13:06:00-04:00,144.58999633789062,144.6699981689453,144.58999633789062,144.6699981689453,1029,0.0,0.0
2024-06-14 13:18:00-04:00,144.55999755859375,144.55999755859375,144.55999755859375,144.55999755859375,352,0.0,0.0
2024-06-14 13:19:00-04:00,144.5399932861328,144.5399932861328,144.5399932861328,144.5399932861328,317,0.0,0.0
2024-06-14 13:23:00-04:00,144.5399932861328,144.5399932861328,144.5399932861328,144.5399932861328,1262,0.0,0.0
2024-06-14 13:25:00-04:00,144.4600067138672,144.4600067138672,144.4600067138672,144.4600067138672,538,0.0,0.0
2024-06-14 13:34:00-04:00,144.5,144.5,144.5,144.5,559,0.0,0.0
2024-06-14 13:42:00-04:00,144.45199584960938,144.45199584960938,144.45199584960938,144.45199584960938,306,0.0,0.0
2024-06-14 13:44:00-04:00,144.4600067138672,144.4600067138672,144.4600067138672,144.4600067138672,739,0.0,0.0
2024-06-14 13:53:00-04:00,144.42999267578125,144.42999267578125,144.36000061035156,144.36000061035156,1256,0.0,0.0
2024-06-14 13:55:00-04:00,144.3300018310547,144.3300018310547,144.3300018310547,144.3300018310547,244,0.0,0.0
2024-06-14 13:56:00-04:00,144.30999755859375,144.30999755859375,144.30999755859375,144.30999755859375,104,0.0,0.0
2024-06-14 13:57:00-04:00,144.26499938964844,144.26499938964844,144.26499938964844,144.26499938964844,326,0.0,0.0
2024-06-14 14:00:00-04:00,144.19000244140625,144.19000244140625,144.19000244140625,144.19000244140625,392,0.0,0.0
2024-06-14 14:02:00-04:00,144.11000061035156,144.11500549316406,144.11000061035156,144.11500549316406,575,0.0,0.0
2024-06-14 14:04:00-04:00,144.12750244140625,144.12750244140625,144.12750244140625,144.12750244140625,100,0.0,0.0
2024-06-14 14:05:00-04:00,144.125,144.1300048828125,144.125,144.1300048828125,793,0.0,0.0
2024-06-14 14:09:00-04:00,144.11000061035156,144.14999389648438,144.11000061035156,144.13999938964844,535,0.0,0.0
2024-06-14 14:10:00-04:00,144.19000244140625,144.19000244140625,144.19000244140625,144.19000244140625,974,0.0,0.0
2024-06-14 14:21:00-04:00,144.19500732421875,144.19500732421875,144.19500732421875,144.19500732421875,462,0.0,0.0
2024-06-14 14:24:00-04:00,144.1999969482422,144.1999969482422,144.1999969482422,144.1999969482422,383,0.0,0.0
2024-06-14 14:28:00-04:00,144.24000549316406,144.25,144.2050018310547,144.2050018310547,622,0.0,0.0
2024-06-14 14:29:00-04:00,144.2100067138672,144.2100067138672,144.2100067138672,144.2100067138672,461,0.0,0.0
2024-06-14 14:37:00-04:00,144.13999938964844,144.13999938964844,144.00999450683594,144.00999450683594,1209,0.0,0.0
2024-06-14 14:38:00-04:00,144.1300048828125,144.1300048828125,144.1300048828125,144.1300048828125,337,0.0,0.0
2024-06-14 14:40:00-04:00,144.1699981689453,144.19000244140625,144.1699981689453,144.17999267578125,709,0.0,0.0
2024-06-14 14:44:00-04:00,144.22000122070312,144.22000122070312,144.22000122070312,144.22000122070312,552,0.0,0.0
2024-06-14 14:50:00-04:00,144.25999450683594,144.25999450683594,144.25999450683594,144.25999450683594,893,0.0,0.0
2024-06-14 14:56:00-04:00,144.2100067138672,144.2100067138672,144.2100067138672,144.2100067138672,126,0.0,0.0
2024-06-14 14:57:00-04:00,144.27999877929688,144.27999877929688,144.27999877929688,144.27999877929688,479,0.0,0.0
2024-06-14 15:00:00-04:00,144.28500366210938,144.28500366210938,144.28500366210938,144.28500366210938,127,0.0,0.0
2024-06-14 15:03:00-04:00,144.2834930419922,144.2834930419922,144.2834930419922,144.2834930419922,219,0.0,0.0
2024-06-14 15:07:00-04:00,144.25999450683594,144.27999877929688,144.25,144.25,644,0.0,0.0
2024-06-14 15:11:00-04:00,144.22999572753906,144.22999572753906,144.0800018310547,144.1199951171875,2787,0.0,0.0
2024-06-14 15:13:00-04:00,144.08999633789062,144.08999633789062,144.08999633789062,144.08999633789062,442,0.0,0.0
2024-06-14 15:15:00-04:00,144.0800018310547,144.10000610351562,144.0800018310547,144.08999633789062,679,0.0,0.0
2024-06-14 15:17:00-04:00,144.08599853515625,144.08599853515625,144.08599853515625,144.08599853515625,557,0.0,0.0
2024-06-14 15:18:00-04:00,144.10000610351562,144.10000610351562,144.10000610351562,144.10000610351562,159,0.0,0.0
2024-06-14 15:20:00-04:00,144.10000610351562,144.10000610351562,144.10000610351562,144.10000610351562,332,0.0,0.0
2024-06-14 15:21:00-04:00,144.09500122070312,144.09500122070312,144.09500122070312,144.09500122070312,164,0.0,0.0
2024-06-14 15:24:00-04:00,144.1999969482422,144.1999969482422,144.14999389648438,144.14999389648438,744,0.0,0.0
2024-06-14 15:25:00-04:00,144.22000122070312,144.22000122070312,144.22000122070312,144.22000122070312,226,0.0,0.0
2024-06-14 15:27:00-04:00,144.16000366210938,144.16000366210938,144.16000366210938,144.16000366210938,475,0.0,0.0
2024-06-14 15:30:00-04:00,144.16000366210938,144.16000366210938,144.14999389648438,144.16000366210938,964,0.0,0.0
2024-06-14 15:31:00-04:00,144.19500732421875,144.2050018310547,144.19500732421875,144.2050018310547,342,0.0,0.0
2024-06-14 15:34:00-04:00,144.1999969482422,144.1999969482422,144.1999969482422,144.1999969482422,295,0.0,0.0
2024-06-14 15:35:00-04:00,144.27000427246094,144.27000427246094,144.27000427246094,144.27000427246094,391,0.0,0.0
2024-06-14 15:36:00-04:00,144.27000427246094,144.27000427246094,144.27000427246094,144.27000427246094,297,0.0,0.0
2024-06-14 15:37:00-04:00,144.30999755859375,144.30999755859375,144.30999755859375,144.30999755859375,574,0.0,0.0
2024-06-14 15:40:00-04:00,144.27999877929688,144.2899932861328,144.19000244140625,144.2100067138672,2273,0.0,0.0
2024-06-14 15:41:00-04:00,144.17999267578125,144.1999969482422,144.1750030517578,144.1999969482422,681,0.0,0.0
2024-06-14 15:42:00-04:00,144.11000061035156,144.1199951171875,144.10000610351562,144.10000610351562,943,0.0,0.0
2024-06-14 15:43:00-04:00,144.0500030517578,144.1199951171875,144.0500030517578,144.1199951171875,877,0.0,0.0
2024-06-14 15:44:00-04:00,144.0800018310547,144.11000061035156,144.0800018310547,144.11000061035156,582,0.0,0.0
2024-06-14 15:45:00-04:00,144.1199951171875,144.16000366210938,144.11000061035156,144.11000061035156,843,0.0,0.0
2024-06-14 15:46:00-04:00,144.16000366210938,144.3300018310547,144.16000366210938,144.27999877929688,1429,0.0,0.0
2024-06-14 15:47:00-04:00,144.32000732421875,144.3300018310547,144.30999755859375,144.3300018310547,414,0.0,0.0
2024-06-14 15:50:00-04:00,144.3800048828125,144.40249633789062,144.3699951171875,144.3699951171875,2719,0.0,0.0
2024-06-14 15:51:00-04:00,144.39999389648438,144.4499969482422,144.39999389648438,144.4250030517578,2194,0.0,0.0
2024-06-14 15:52:00-04:00,144.50999450683594,144.55999755859375,144.50750732421875,144.55999755859375,2909,0.0,0.0
2024-06-14 15:53:00-04:00,144.50999450683594,144.50999450683594,144.42999267578125,144.4499969482422,2155,0.0,0.0
2024-06-14 15:54:00-04:00,144.48500061035156,144.60000610351562,144.48500061035156,144.60000610351562,1021,0.0,0.0
2024-06-14 15:55:00-04:00,144.5,144.52000427246094,144.4499969482422,144.52000427246094,2125,0.0,0.0
2024-06-14 15:56:00-04:00,144.5399932861328,144.6199951171875,144.49000549316406,144.55999755859375,4238,0.0,0.0
2024-06-14 15:57:00-04:00,144.52999877929688,144.58999633789062,144.52999877929688,144.52999877929688,954,0.0,0.0
2024-06-14 15:58:00-04:00,144.61500549316406,144.61500549316406,144.47999572753906,144.5500030517578,3388,0.0,0.0
2024-06-14 15:59:00-04:00,144.60000610351562,144.75,144.60000610351562,144.75,10447,0.0,0.0
