Datetime,Open,High,Low,Close,Volume,Dividends,Stock Splits
2024-09-03 09:30:00-04:00,152.11000061035156,152.11000061035156,152.11000061035156,152.11000061035156,2048,0.0,0.0
2024-09-03 09:32:00-04:00,152.3699951171875,152.3699951171875,152.3699951171875,152.3699951171875,141,0.0,0.0
2024-09-03 09:33:00-04:00,152.27000427246094,152.27000427246094,152.27000427246094,152.27000427246094,753,0.0,0.0
2024-09-03 09:41:00-04:00,152.375,152.375,152.375,152.375,677,0.0,0.0
2024-09-03 09:47:00-04:00,152.27000427246094,152.27000427246094,152.27000427246094,152.27000427246094,193,0.0,0.0
2024-09-03 09:49:00-04:00,151.8300018310547,151.8300018310547,151.8300018310547,151.8300018310547,435,0.0,0.0
2024-09-03 09:52:00-04:00,151.56500244140625,151.56500244140625,151.56500244140625,151.56500244140625,1110,0.0,0.0
2024-09-03 09:53:00-04:00,151.56500244140625,151.56500244140625,151.56500244140625,151.56500244140625,665,0.0,0.0
2024-09-03 09:54:00-04:00,151.8800048828125,151.88999938964844,151.8800048828125,151.88999938964844,941,0.0,0.0
2024-09-03 09:57:00-04:00,151.5399932861328,151.5399932861328,151.5399932861328,151.5399932861328,295,0.0,0.0
2024-09-03 09:59:00-04:00,151.5500030517578,151.5500030517578,151.5500030517578,151.5500030517578,277,0.0,0.0
2024-09-03 10:00:00-04:00,151.5500030517578,151.5500030517578,151.52999877929688,151.52999877929688,707,0.0,0.0
2024-09-03 10:01:00-04:00,151.6300048828125,151.6999969482422,151.51499938964844,151.60000610351562,1029,0.0,0.0
2024-09-03 10:02:00-04:00,151.5399932861328,151.5399932861328,151.2100067138672,151.3249969482422,4379,0.0,0.0
2024-09-03 10:03:00-04:00,151.3350067138672,151.3350067138672,151.3350067138672,151.3350067138672,336,0.0,0.0
2024-09-03 10:06:00-04:00,150.8699951171875,150.8699951171875,150.8699951171875,150.8699951171875,177,0.0,0.0
2024-09-03 10:07:00-04:00,151.09500122070312,151.09500122070312,150.88999938964844,151.0,909,0.0,0.0
2024-09-03 10:08:00-04:00,151.10499572753906,151.10499572753906,151.05499267578125,151.05499267578125,879,0.0,0.0
2024-09-03 10:09:00-04:00,151.0800018310547,151.3300018310547,151.0,151.0,1386,0.0,0.0
2024-09-03 10:10:00-04:00,150.97000122070312,151.11500549316406,150.97000122070312,151.11500549316406,844,0.0,0.0
2024-09-03 10:11:00-04:00,151.10499572753906,151.10499572753906,151.10499572753906,151.10499572753906,567,0.0,0.0
2024-09-03 10:12:00-04:00,151.33999633789062,151.35000610351562,151.1699981689453,151.34500122070312,2944,0.0,0.0
2024-09-03 10:15:00-04:00,151.1300048828125,151.1300048828125,151.02999877929688,151.02999877929688,261,0.0,0.0
2024-09-03 10:16:00-04:00,150.8699951171875,150.9499969482422,150.8699951171875,150.9499969482422,572,0.0,0.0
2024-09-03 10:17:00-04:00,150.97500610351562,150.97500610351562,150.97500610351562,150.97500610351562,740,0.0,0.0
2024-09-03 10:19:00-04:00,151.0749969482422,151.24000549316406,151.0749969482422,151.24000549316406,1386,0.0,0.0
2024-09-03 10:22:00-04:00,151.02999877929688,151.02999877929688,151.02999877929688,151.02999877929688,378,0.0,0.0
2024-09-03 10:23:00-04:00,150.8000030517578,150.8800048828125,150.8000030517578,150.8800048828125,2594,0.0,0.0
2024-09-03 10:24:00-04:00,150.7550048828125,150.7550048828125,150.72999572753906,150.72999572753906,542,0.0,0.0
2024-09-03 10:25:00-04:00,150.7899932861328,150.7899932861328,150.77999877929688,150.77999877929688,939,0.0,0.0
2024-09-03 10:26:00-04:00,150.98500061035156,150.98500061035156,150.90499877929688,150.90499877929688,806,0.0,0.0
2024-09-03 10:28:00-04:00,150.8699951171875,150.8699951171875,150.8699951171875,150.8699951171875,276,0.0,0.0
2024-09-03 10:29:00-04:00,150.7899932861328,150.8699951171875,150.77000427246094,150.8699951171875,663,0.0,0.0
2024-09-03 10:31:00-04:00,150.8350067138672,150.8350067138672,150.8350067138672,150.8350067138672,448,0.0,0.0
2024-09-03 10:32:00-04:00,150.80999755859375,150.89999389648438,150.80499267578125,150.89999389648438,1225,0.0,0.0
2024-09-03 10:33:00-04:00,150.8800048828125,150.8800048828125,150.8800048828125,150.8800048828125,850,0.0,0.0
2024-09-03 10:43:00-04:00,150.86000061035156,150.86000061035156,150.86000061035156,150.86000061035156,679,0.0,0.0
2024-09-03 10:44:00-04:00,151.0,151.0,150.80999755859375,150.80999755859375,715,0.0,0.0
2024-09-03 10:45:00-04:00,150.81100463867188,150.81100463867188,150.6300048828125,150.6649932861328,1659,0.0,0.0
2024-09-03 10:46:00-04:00,150.5500030517578,150.57000732421875,150.47999572753906,150.47999572753906,1683,0.0,0.0
2024-09-03 10:47:00-04:00,150.60000610351562,150.6999969482422,150.5749969482422,150.5800018310547,540,0.0,0.0
2024-09-03 10:48:00-04:00,150.7449951171875,150.7449951171875,150.7449951171875,150.7449951171875,658,0.0,0.0
2024-09-03 10:53:00-04:00,150.63999938964844,150.63999938964844,150.63999938964844,150.63999938964844,405,0.0,0.0
2024-09-03 10:55:00-04:00,150.73500061035156,150.82000732421875,150.73500061035156,150.82000732421875,355,0.0,0.0
2024-09-03 10:56:00-04:00,150.67999267578125,150.83999633789062,150.67999267578125,150.83999633789062,414,0.0,0.0
2024-09-03 10:58:00-04:00,150.76499938964844,151.07000732421875,150.76499938964844,151.07000732421875,2050,0.0,0.0
2024-09-03 10:59:00-04:00,151.05999755859375,151.24000549316406,151.05999755859375,151.10000610351562,1179,0.0,0.0
2024-09-03 11:00:00-04:00,151.25,151.4499969482422,151.25,151.4499969482422,570,0.0,0.0
2024-09-03 11:02:00-04:00,151.27499389648438,151.27499389648438,151.27499389648438,151.27499389648438,405,0.0,0.0
2024-09-03 11:04:00-04:00,151.17999267578125,151.17999267578125,151.17999267578125,151.17999267578125,193,0.0,0.0
2024-09-03 11:06:00-04:00,151.1699981689453,151.27999877929688,151.1699981689453,151.27999877929688,462,0.0,0.0
2024-09-03 11:07:00-04:00,151.38999938964844,151.4199981689453,151.28500366210938,151.39999389648438,547,0.0,0.0
2024-09-03 11:08:00-04:00,151.28500366210938,151.28500366210938,151.28500366210938,151.28500366210938,189,0.0,0.0
2024-09-03 11:09:00-04:00,151.44000244140625,151.6699981689453,151.42999267578125,151.6699981689453,764,0.0,0.0
2024-09-03 11:10:00-04:00,151.5,151.63999938964844,151.5,151.63999938964844,695,0.0,0.0
2024-09-03 11:12:00-04:00,151.5399932861328,151.5500030517578,151.5399932861328,151.5500030517578,395,0.0,0.0
2024-09-03 11:13:00-04:00,151.4149932861328,151.4149932861328,151.39999389648438,151.39999389648438,412,0.0,0.0
2024-09-03 11:14:00-04:00,151.38999938964844,151.47999572753906,151.38999938964844,151.38999938964844,1214,0.0,0.0
2024-09-03 11:20:00-04:00,151.39999389648438,151.47999572753906,151.27999877929688,151.39999389648438,625,0.0,0.0
2024-09-03 11:21:00-04:00,151.52000427246094,151.77000427246094,151.52000427246094,151.77000427246094,1436,0.0,0.0
2024-09-03 11:22:00-04:00,151.77999877929688,151.77999877929688,151.77999877929688,151.77999877929688,497,0.0,0.0
2024-09-03 11:23:00-04:00,151.80999755859375,151.80999755859375,151.80999755859375,151.80999755859375,338,0.0,0.0
2024-09-03 11:25:00-04:00,151.9199981689453,152.0,151.9199981689453,152.0,449,0.0,0.0
2024-09-03 11:27:00-04:00,152.02999877929688,152.02999877929688,152.02999877929688,152.02999877929688,159,0.0,0.0
2024-09-03 11:28:00-04:00,151.80999755859375,151.80999755859375,151.8000030517578,151.80999755859375,2726,0.0,0.0
2024-09-03 11:29:00-04:00,151.91000366210938,151.93499755859375,151.91000366210938,151.93499755859375,903,0.0,0.0
2024-09-03 11:32:00-04:00,151.83999633789062,151.83999633789062,151.75,151.75999450683594,2669,0.0,0.0
2024-09-03 11:33:00-04:00,151.7550048828125,151.7550048828125,151.7550048828125,151.7550048828125,512,0.0,0.0
2024-09-03 11:34:00-04:00,151.7550048828125,151.86000061035156,151.7550048828125,151.81500244140625,2397,0.0,0.0
2024-09-03 11:38:00-04:00,151.697998046875,151.97000122070312,151.64999389648438,151.66000366210938,3084,0.0,0.0
2024-09-03 11:39:00-04:00,151.66000366210938,151.66000366210938,151.66000366210938,151.66000366210938,219,0.0,0.0
2024-09-03 11:42:00-04:00,151.7126007080078,151.7126007080078,151.7126007080078,151.7126007080078,587,0.0,0.0
2024-09-03 11:48:00-04:00,151.64999389648438,151.7100067138672,151.64999389648438,151.7100067138672,935,0.0,0.0
2024-09-03 11:50:00-04:00,151.72999572753906,151.72999572753906,151.72999572753906,151.72999572753906,525,0.0,0.0
2024-09-03 11:53:00-04:00,151.7449951171875,151.7449951171875,151.7449951171875,151.7449951171875,940,0.0,0.0
2024-09-03 11:55:00-04:00,151.73500061035156,151.73500061035156,151.73500061035156,151.73500061035156,269,0.0,0.0
2024-09-03 11:57:00-04:00,151.64999389648438,151.64999389648438,151.64999389648438,151.64999389648438,946,0.0,0.0
2024-09-03 12:01:00-04:00,151.64999389648438,151.64999389648438,151.625,151.625,952,0.0,0.0
2024-09-03 12:02:00-04:00,151.61000061035156,151.61000061035156,151.5399932861328,151.5399932861328,1013,0.0,0.0
2024-09-03 12:04:00-04:00,151.55499267578125,151.6699981689453,151.55499267578125,151.6699981689453,929,0.0,0.0
2024-09-03 12:05:00-04:00,151.58999633789062,151.58999633789062,151.58999633789062,151.58999633789062,110,0.0,0.0
2024-09-03 12:06:00-04:00,151.59500122070312,151.59500122070312,151.59500122070312,151.59500122070312,346,0.0,0.0
2024-09-03 12:10:00-04:00,151.67999267578125,151.67999267578125,151.67999267578125,151.67999267578125,578,0.0,0.0
2024-09-03 12:12:00-04:00,151.5,151.5,151.5,151.5,636,0.0,0.0
2024-09-03 12:14:00-04:00,151.50999450683594,151.5500030517578,151.50999450683594,151.5500030517578,574,0.0,0.0
2024-09-03 12:15:00-04:00,151.55999755859375,151.58999633789062,151.55999755859375,151.5850067138672,1083,0.0,0.0
2024-09-03 12:17:00-04:00,151.67999267578125,151.67999267578125,151.65499877929688,151.65499877929688,271,0.0,0.0
2024-09-03 12:19:00-04:00,151.66000366210938,151.66000366210938,151.66000366210938,151.66000366210938,576,0.0,0.0
2024-09-03 12:25:00-04:00,151.5800018310547,151.5800018310547,151.44000244140625,151.44000244140625,1367,0.0,0.0
2024-09-03 12:26:00-04:00,151.48500061035156,151.48500061035156,151.48500061035156,151.48500061035156,602,0.0,0.0
2024-09-03 12:29:00-04:00,151.60000610351562,151.60000610351562,151.60000610351562,151.60000610351562,609,0.0,0.0
2024-09-03 12:34:00-04:00,151.38999938964844,151.38999938964844,151.38999938964844,151.38999938964844,438,0.0,0.0
2024-09-03 12:35:00-04:00,151.38999938964844,151.42999267578125,151.3800048828125,151.3800048828125,774,0.0,0.0
2024-09-03 12:36:00-04:00,151.3800048828125,151.3800048828125,151.3800048828125,151.3800048828125,161,0.0,0.0
2024-09-03 12:37:00-04:00,151.25999450683594,151.25999450683594,151.25999450683594,151.25999450683594,198,0.0,0.0
2024-09-03 12:41:00-04:00,151.31500244140625,151.31500244140625,151.1750030517578,151.1750030517578,974,0.0,0.0
2024-09-03 12:42:00-04:00,151.25,151.25,151.25,151.25,1244,0.0,0.0
2024-09-03 12:44:00-04:00,151.30999755859375,151.3300018310547,151.30999755859375,151.3300018310547,885,0.0,0.0
2024-09-03 12:47:00-04:00,151.3300018310547,151.3300018310547,151.3300018310547,151.3300018310547,312,0.0,0.0
2024-09-03 12:48:00-04:00,151.2100067138672,151.22999572753906,151.2100067138672,151.22999572753906,854,0.0,0.0
2024-09-03 12:52:00-04:00,151.05999755859375,151.05999755859375,151.05999755859375,151.05999755859375,403,0.0,0.0
2024-09-03 12:56:00-04:00,150.97999572753906,150.99000549316406,150.74000549316406,150.82000732421875,5729,0.0,0.0
2024-09-03 12:57:00-04:00,150.82000732421875,150.91000366210938,150.82000732421875,150.91000366210938,1198,0.0,0.0
2024-09-03 12:58:00-04:00,150.9199981689453,150.9199981689453,150.875,150.89999389648438,1035,0.0,0.0
2024-09-03 12:59:00-04:00,150.80999755859375,150.80999755859375,150.80999755859375,150.80999755859375,398,0.0,0.0
2024-09-03 13:01:00-04:00,150.89999389648438,150.89999389648438,150.89999389648438,150.89999389648438,139,0.0,0.0
2024-09-03 13:03:00-04:00,150.80999755859375,150.80999755859375,150.80999755859375,150.80999755859375,363,0.0,0.0
2024-09-03 13:06:00-04:00,150.97000122070312,150.97000122070312,150.97000122070312,150.97000122070312,182,0.0,0.0
2024-09-03 13:07:00-04:00,150.87120056152344,150.87120056152344,150.87120056152344,150.87120056152344,505,0.0,0.0
2024-09-03 13:08:00-04:00,150.9250030517578,150.9550018310547,150.9250030517578,150.9550018310547,606,0.0,0.0
2024-09-03 13:12:00-04:00,150.88999938964844,150.88999938964844,150.82000732421875,150.82000732421875,1029,0.0,0.0
2024-09-03 13:14:00-04:00,150.85499572753906,150.85499572753906,150.85499572753906,150.85499572753906,329,0.0,0.0
2024-09-03 13:17:00-04:00,150.82000732421875,150.8520050048828,150.8000030517578,150.80999755859375,1413,0.0,0.0
2024-09-03 13:19:00-04:00,150.80999755859375,150.80999755859375,150.80999755859375,150.80999755859375,383,0.0,0.0
2024-09-03 13:20:00-04:00,150.88999938964844,150.89999389648438,150.8350067138672,150.8350067138672,1077,0.0,0.0
2024-09-03 13:21:00-04:00,150.97999572753906,150.97999572753906,150.9499969482422,150.9499969482422,1498,0.0,0.0
2024-09-03 13:25:00-04:00,150.99000549316406,150.99000549316406,150.99000549316406,150.99000549316406,493,0.0,0.0
2024-09-03 13:29:00-04:00,150.9835968017578,150.9835968017578,150.96499633789062,150.96499633789062,433,0.0,0.0
2024-09-03 13:33:00-04:00,150.9550018310547,150.9550018310547,150.9550018310547,150.9550018310547,687,0.0,0.0
2024-09-03 13:38:00-04:00,150.93499755859375,150.93499755859375,150.93499755859375,150.93499755859375,352,0.0,0.0
2024-09-03 13:39:00-04:00,150.8699951171875,150.8699951171875,150.8699951171875,150.8699951171875,438,0.0,0.0
2024-09-03 13:43:00-04:00,150.8699951171875,150.8699951171875,150.8699951171875,150.8699951171875,736,0.0,0.0
2024-09-03 13:44:00-04:00,150.88999938964844,150.9199981689453,150.88499450683594,150.88499450683594,719,0.0,0.0
2024-09-03 13:45:00-04:00,150.88499450683594,150.88499450683594,150.88499450683594,150.88499450683594,1502,0.0,0.0
2024-09-03 13:50:00-04:00,150.8300018310547,150.89500427246094,150.8300018310547,150.89500427246094,1414,0.0,0.0
2024-09-03 13:53:00-04:00,150.9199981689453,150.9199981689453,150.89500427246094,150.89500427246094,624,0.0,0.0
2024-09-03 13:55:00-04:00,150.89999389648438,150.9499969482422,150.89999389648438,150.9199981689453,2030,0.0,0.0
2024-09-03 13:56:00-04:00,150.9199981689453,150.9199981689453,150.9199981689453,150.9199981689453,286,0.0,0.0
2024-09-03 13:57:00-04:00,150.91000366210938,150.91000366210938,150.91000366210938,150.91000366210938,159,0.0,0.0
2024-09-03 13:59:00-04:00,150.8800048828125,150.91000366210938,150.8800048828125,150.91000366210938,793,0.0,0.0
2024-09-03 14:00:00-04:00,150.9499969482422,150.9600067138672,150.9499969482422,150.9600067138672,631,0.0,0.0
2024-09-03 14:02:00-04:00,150.8800048828125,150.8800048828125,150.72999572753906,150.72999572753906,1464,0.0,0.0
2024-09-03 14:04:00-04:00,150.8249969482422,150.8249969482422,150.8249969482422,150.8249969482422,304,0.0,0.0
2024-09-03 14:05:00-04:00,150.89999389648438,150.91000366210938,150.89999389648438,150.91000366210938,991,0.0,0.0
2024-09-03 14:06:00-04:00,150.88999938964844,150.89500427246094,150.875,150.89500427246094,1132,0.0,0.0
2024-09-03 14:10:00-04:00,150.9499969482422,151.00999450683594,150.9499969482422,151.00999450683594,1815,0.0,0.0
2024-09-03 14:12:00-04:00,150.9499969482422,150.9499969482422,150.9499969482422,150.9499969482422,406,0.0,0.0
2024-09-03 14:14:00-04:00,151.0,151.0,151.0,151.0,200,0.0,0.0
2024-09-03 14:15:00-04:00,151.0050048828125,151.0399932861328,151.0050048828125,151.0399932861328,407,0.0,0.0
2024-09-03 14:16:00-04:00,150.97000122070312,151.02000427246094,150.9600067138672,151.02000427246094,904,0.0,0.0
2024-09-03 14:18:00-04:00,150.9600067138672,150.99000549316406,150.9499969482422,150.9499969482422,1412,0.0,0.0
2024-09-03 14:24:00-04:00,151.01499938964844,151.01499938964844,151.01499938964844,151.01499938964844,830,0.0,0.0
2024-09-03 14:29:00-04:00,150.96499633789062,150.96499633789062,150.96499633789062,150.96499633789062,370,0.0,0.0
2024-09-03 14:30:00-04:00,151.02000427246094,151.02000427246094,151.02000427246094,151.02000427246094,1126,0.0,0.0
2024-09-03 14:34:00-04:00,150.9199981689453,150.9199981689453,150.9199981689453,150.9199981689453,209,0.0,0.0
2024-09-03 14:36:00-04:00,150.88499450683594,150.88499450683594,150.88499450683594,150.88499450683594,513,0.0,0.0
2024-09-03 14:37:00-04:00,150.88999938964844,150.88999938964844,150.88999938964844,150.88999938964844,209,0.0,0.0
2024-09-03 14:38:00-04:00,150.91000366210938,150.91000366210938,150.91000366210938,150.91000366210938,442,0.0,0.0
2024-09-03 14:39:00-04:00,150.8800048828125,150.91000366210938,150.8800048828125,150.91000366210938,916,0.0,0.0
2024-09-03 14:40:00-04:00,150.9499969482422,150.9499969482422,150.92999267578125,150.92999267578125,1008,0.0,0.0
2024-09-03 14:42:00-04:00,150.97999572753906,150.97999572753906,150.97999572753906,150.97999572753906,837,0.0,0.0
2024-09-03 14:47:00-04:00,150.8800048828125,150.92999267578125,150.8699951171875,150.92999267578125,744,0.0,0.0
2024-09-03 14:48:00-04:00,150.8300018310547,150.8300018310547,150.8300018310547,150.8300018310547,510,0.0,0.0
2024-09-03 14:50:00-04:00,150.77000427246094,150.77999877929688,150.77000427246094,150.77999877929688,905,0.0,0.0
2024-09-03 14:51:00-04:00,150.85000610351562,150.8800048828125,150.85000610351562,150.86500549316406,1134,0.0,0.0
2024-09-03 14:52:00-04:00,150.89500427246094,150.89500427246094,150.89500427246094,150.89500427246094,821,0.0,0.0
2024-09-03 14:55:00-04:00,150.85000610351562,150.85000610351562,150.85000610351562,150.85000610351562,379,0.0,0.0
2024-09-03 14:56:00-04:00,150.77999877929688,150.85000610351562,150.77000427246094,150.85000610351562,1197,0.0,0.0
2024-09-03 15:00:00-04:00,150.77000427246094,150.77000427246094,150.77000427246094,150.77000427246094,861,0.0,0.0
2024-09-03 15:01:00-04:00,150.7449951171875,150.77000427246094,150.7449951171875,150.77000427246094,895,0.0,0.0
2024-09-03 15:04:00-04:00,150.8350067138672,150.8350067138672,150.8350067138672,150.8350067138672,1192,0.0,0.0
2024-09-03 15:08:00-04:00,150.87989807128906,150.87989807128906,150.86000061035156,150.86000061035156,876,0.0,0.0
2024-09-03 15:09:00-04:00,150.8699951171875,150.8699951171875,150.8699951171875,150.8699951171875,1551,0.0,0.0
2024-09-03 15:16:00-04:00,150.92999267578125,150.92999267578125,150.92999267578125,150.92999267578125,589,0.0,0.0
2024-09-03 15:17:00-04:00,150.97000122070312,150.97000122070312,150.97000122070312,150.97000122070312,328,0.0,0.0
2024-09-03 15:18:00-04:00,150.99000549316406,151.0500030517578,150.99000549316406,151.0500030517578,636,0.0,0.0
2024-09-03 15:19:00-04:00,150.97999572753906,150.97999572753906,150.97999572753906,150.97999572753906,1140,0.0,0.0
2024-09-03 15:22:00-04:00,150.8800048828125,150.89999389648438,150.8800048828125,150.88999938964844,1641,0.0,0.0
2024-09-03 15:24:00-04:00,150.94000244140625,150.9499969482422,150.94000244140625,150.9499969482422,1102,0.0,0.0
2024-09-03 15:25:00-04:00,150.9199981689453,150.9199981689453,150.9199981689453,150.9199981689453,215,0.0,0.0
2024-09-03 15:26:00-04:00,150.8699951171875,150.8699951171875,150.85000610351562,150.8699951171875,1156,0.0,0.0
2024-09-03 15:27:00-04:00,150.92999267578125,150.92999267578125,150.84500122070312,150.8699951171875,2842,0.0,0.0
2024-09-03 15:28:00-04:00,150.7949981689453,150.82000732421875,150.76499938964844,150.7899932861328,1633,0.0,0.0
2024-09-03 15:29:00-04:00,150.75799560546875,150.77000427246094,150.6750030517578,150.6750030517578,1999,0.0,0.0
2024-09-03 15:30:00-04:00,150.75,150.78500366210938,150.68499755859375,150.73500061035156,1570,0.0,0.0
2024-09-03 15:31:00-04:00,150.78500366210938,150.7949981689453,150.7550048828125,150.7899932861328,1531,0.0,0.0
2024-09-03 15:32:00-04:00,150.75999450683594,150.7899932861328,150.74000549316406,150.7899932861328,1301,0.0,0.0
2024-09-03 15:33:00-04:00,150.6699981689453,150.6999969482422,150.6649932861328,150.6649932861328,1508,0.0,0.0
2024-09-03 15:34:00-04:00,150.6699981689453,150.72000122070312,150.64999389648438,150.66000366210938,1778,0.0,0.0
2024-09-03 15:35:00-04:00,150.64999389648438,150.64999389648438,150.52000427246094,150.55499267578125,4210,0.0,0.0
2024-09-03 15:36:00-04:00,150.5500030517578,150.5500030517578,150.52999877929688,150.52999877929688,887,0.0,0.0
2024-09-03 15:37:00-04:00,150.47500610351562,150.5019989013672,150.36500549316406,150.36500549316406,1405,0.0,0.0
2024-09-03 15:38:00-04:00,150.3699951171875,150.3699951171875,150.24000549316406,150.24000549316406,1180,0.0,0.0
2024-09-03 15:39:00-04:00,150.24000549316406,150.30999755859375,150.1999969482422,150.2100067138672,2700,0.0,0.0
2024-09-03 15:40:00-04:00,150.2100067138672,150.2449951171875,150.19000244140625,150.19000244140625,2386,0.0,0.0
2024-09-03 15:41:00-04:00,150.16000366210938,150.16000366210938,150.10499572753906,150.11000061035156,619,0.0,0.0
2024-09-03 15:42:00-04:00,150.11500549316406,150.11500549316406,150.05099487304688,150.08999633789062,1697,0.0,0.0
2024-09-03 15:43:00-04:00,150.11500549316406,150.17999267578125,150.05999755859375,150.17999267578125,1210,0.0,0.0
2024-09-03 15:44:00-04:00,150.13499450683594,150.13499450683594,150.08999633789062,150.1300048828125,4042,0.0,0.0
2024-09-03 15:45:00-04:00,150.14999389648438,150.17999267578125,150.14999389648438,150.1649932861328,2698,0.0,0.0
2024-09-03 15:46:00-04:00,150.1300048828125,150.1699981689453,150.1300048828125,150.13999938964844,1584,0.0,0.0
2024-09-03 15:47:00-04:00,150.02000427246094,150.02999877929688,149.9550018310547,149.9550018310547,3560,0.0,0.0
2024-09-03 15:48:00-04:00,149.9949951171875,150.0800018310547,149.97999572753906,150.0800018310547,1568,0.0,0.0
2024-09-03 15:49:00-04:00,150.0800018310547,150.11000061035156,150.0399932861328,150.0749969482422,2252,0.0,0.0
2024-09-03 15:50:00-04:00,150.07000732421875,150.08999633789062,149.89999389648438,150.08999633789062,8375,0.0,0.0
2024-09-03 15:51:00-04:00,150.10000610351562,150.10000610351562,149.8699951171875,149.8800048828125,5164,0.0,0.0
2024-09-03 15:52:00-04:00,149.98500061035156,149.99000549316406,149.8300018310547,149.8300018310547,3454,0.0,0.0
2024-09-03 15:53:00-04:00,149.81100463867188,149.91000366210938,149.8000030517578,149.91000366210938,4488,0.0,0.0
2024-09-03 15:54:00-04:00,149.91000366210938,149.9600067138672,149.8699951171875,149.8699951171875,5486,0.0,0.0
2024-09-03 15:55:00-04:00,149.85000610351562,149.99000549316406,149.85000610351562,149.8699951171875,5672,0.0,0.0
2024-09-03 15:56:00-04:00,149.9199981689453,149.94000244140625,149.86000061035156,149.88999938964844,4942,0.0,0.0
2024-09-03 15:57:00-04:00,149.9199981689453,149.92999267578125,149.8249969482422,149.8699951171875,7850,0.0,0.0
2024-09-03 15:58:00-04:00,149.8699951171875,149.88999938964844,149.77000427246094,149.77000427246094,9404,0.0,0.0
2024-09-03 15:59:00-04:00,149.7899932861328,150.0399932861328,149.72999572753906,150.02000427246094,48192,0.0,0.0
2024-09-04 09:30:00-04:00,149.60000610351562,149.60000610351562,149.60000610351562,149.60000610351562,814,0.0,0.0
2024-09-04 09:33:00-04:00,150.25999450683594,150.25999450683594,150.25999450683594,150.25999450683594,129,0.0,0.0
2024-09-04 09:35:00-04:00,150.26499938964844,150.26499938964844,150.16580200195312,150.16580200195312,303,0.0,0.0
2024-09-04 09:37:00-04:00,150.26499938964844,150.26499938964844,150.26499938964844,150.26499938964844,101,0.0,0.0
2024-09-04 09:38:00-04:00,150.26499938964844,150.26499938964844,150.0500030517578,150.26499938964844,533,0.0,0.0
2024-09-04 09:40:00-04:00,150.47999572753906,150.7899932861328,150.47999572753906,150.77000427246094,1760,0.0,0.0
2024-09-04 09:44:00-04:00,150.27999877929688,150.27999877929688,150.27999877929688,150.27999877929688,650,0.0,0.0
2024-09-04 09:50:00-04:00,150.16000366210938,150.16000366210938,150.16000366210938,150.16000366210938,1100,0.0,0.0
2024-09-04 09:51:00-04:00,150.16000366210938,150.16000366210938,150.16000366210938,150.16000366210938,126,0.0,0.0
2024-09-04 09:52:00-04:00,150.52999877929688,150.52999877929688,150.52999877929688,150.52999877929688,209,0.0,0.0
2024-09-04 09:53:00-04:00,150.16000366210938,150.16000366210938,150.16000366210938,150.16000366210938,100,0.0,0.0
2024-09-04 09:54:00-04:00,150.16000366210938,150.16000366210938,150.16000366210938,150.16000366210938,140,0.0,0.0
2024-09-04 09:57:00-04:00,150.4600067138672,150.77000427246094,150.4600067138672,150.77000427246094,1234,0.0,0.0
2024-09-04 09:58:00-04:00,150.77000427246094,150.77000427246094,150.77000427246094,150.77000427246094,478,0.0,0.0
2024-09-04 10:00:00-04:00,150.47000122070312,150.47000122070312,150.2324981689453,150.2324981689453,1676,0.0,0.0
2024-09-04 10:07:00-04:00,150.24000549316406,150.24000549316406,150.24000549316406,150.24000549316406,277,0.0,0.0
2024-09-04 10:08:00-04:00,150.4199981689453,150.44000244140625,150.4199981689453,150.44000244140625,578,0.0,0.0
2024-09-04 10:10:00-04:00,150.31500244140625,150.31500244140625,150.31500244140625,150.31500244140625,523,0.0,0.0
2024-09-04 10:11:00-04:00,150.08999633789062,150.08999633789062,150.08999633789062,150.08999633789062,306,0.0,0.0
2024-09-04 10:16:00-04:00,150.27499389648438,150.27499389648438,150.27499389648438,150.27499389648438,220,0.0,0.0
2024-09-04 10:17:00-04:00,150.27000427246094,150.27000427246094,150.27000427246094,150.27000427246094,327,0.0,0.0
2024-09-04 10:19:00-04:00,150.14999389648438,150.33999633789062,150.125,150.125,1678,0.0,0.0
2024-09-04 10:20:00-04:00,149.9199981689453,150.1199951171875,149.9199981689453,150.1199951171875,446,0.0,0.0
2024-09-04 10:22:00-04:00,150.33999633789062,150.55499267578125,150.33999633789062,150.55499267578125,1415,0.0,0.0
2024-09-04 10:23:00-04:00,150.7100067138672,150.7100067138672,150.6999969482422,150.6999969482422,331,0.0,0.0
2024-09-04 10:25:00-04:00,150.66000366210938,150.66000366210938,150.66000366210938,150.66000366210938,261,0.0,0.0
2024-09-04 10:27:00-04:00,150.66000366210938,150.66000366210938,150.66000366210938,150.66000366210938,431,0.0,0.0
2024-09-04 10:31:00-04:00,150.74000549316406,150.77609252929688,150.74000549316406,150.77609252929688,528,0.0,0.0
2024-09-04 10:33:00-04:00,150.49000549316406,150.49000549316406,150.46499633789062,150.46499633789062,579,0.0,0.0
2024-09-04 10:34:00-04:00,150.46499633789062,150.46499633789062,150.46499633789062,150.46499633789062,209,0.0,0.0
2024-09-04 10:37:00-04:00,150.35000610351562,150.35000610351562,150.35000610351562,150.35000610351562,177,0.0,0.0
2024-09-04 10:39:00-04:00,150.64999389648438,150.69000244140625,150.64999389648438,150.69000244140625,1123,0.0,0.0
2024-09-04 10:42:00-04:00,150.69000244140625,150.69000244140625,150.69000244140625,150.69000244140625,247,0.0,0.0
2024-09-04 10:48:00-04:00,150.61000061035156,150.61000061035156,150.61000061035156,150.61000061035156,202,0.0,0.0
2024-09-04 10:50:00-04:00,150.58999633789062,150.58999633789062,150.4600067138672,150.4600067138672,287,0.0,0.0
2024-09-04 10:54:00-04:00,150.6199951171875,150.6199951171875,150.47999572753906,150.47999572753906,370,0.0,0.0
2024-09-04 10:55:00-04:00,150.61500549316406,150.61500549316406,150.61500549316406,150.61500549316406,250,0.0,0.0
2024-09-04 10:57:00-04:00,150.63499450683594,150.63499450683594,150.63499450683594,150.63499450683594,309,0.0,0.0
2024-09-04 10:59:00-04:00,150.50999450683594,150.50999450683594,150.50999450683594,150.50999450683594,105,0.0,0.0
2024-09-04 11:00:00-04:00,150.63499450683594,150.63499450683594,150.63499450683594,150.63499450683594,422,0.0,0.0
2024-09-04 11:04:00-04:00,150.77999877929688,150.77999877929688,150.49000549316406,150.49000549316406,571,0.0,0.0
2024-09-04 11:08:00-04:00,150.49000549316406,150.5449981689453,150.42999267578125,150.5449981689453,1175,0.0,0.0
2024-09-04 11:12:00-04:00,150.35000610351562,150.35000610351562,150.35000610351562,150.35000610351562,205,0.0,0.0
2024-09-04 11:17:00-04:00,150.39999389648438,150.39999389648438,150.39999389648438,150.39999389648438,696,0.0,0.0
2024-09-04 11:19:00-04:00,150.33999633789062,150.33999633789062,150.33999633789062,150.33999633789062,1116,0.0,0.0
2024-09-04 11:20:00-04:00,150.33999633789062,150.49000549316406,150.33999633789062,150.49000549316406,388,0.0,0.0
2024-09-04 11:21:00-04:00,150.38999938964844,150.38999938964844,150.38999938964844,150.38999938964844,132,0.0,0.0
2024-09-04 11:22:00-04:00,150.16000366210938,150.16000366210938,150.16000366210938,150.16000366210938,122,0.0,0.0
2024-09-04 11:23:00-04:00,150.3249969482422,150.3249969482422,150.32000732421875,150.32000732421875,1330,0.0,0.0
2024-09-04 11:24:00-04:00,150.30499267578125,150.30499267578125,150.30499267578125,150.30499267578125,196,0.0,0.0
2024-09-04 11:26:00-04:00,150.3000030517578,150.3000030517578,150.25999450683594,150.25999450683594,605,0.0,0.0
2024-09-04 11:29:00-04:00,150.3350067138672,150.3350067138672,150.3350067138672,150.3350067138672,401,0.0,0.0
2024-09-04 11:30:00-04:00,150.28500366210938,150.28500366210938,150.28250122070312,150.28250122070312,463,0.0,0.0
2024-09-04 11:31:00-04:00,150.27999877929688,150.27999877929688,150.0500030517578,150.13999938964844,2660,0.0,0.0
2024-09-04 11:32:00-04:00,150.14999389648438,150.15499877929688,150.14999389648438,150.15499877929688,296,0.0,0.0
2024-09-04 11:33:00-04:00,150.15499877929688,150.15499877929688,150.15499877929688,150.15499877929688,261,0.0,0.0
2024-09-04 11:34:00-04:00,150.15499877929688,150.25,150.15499877929688,150.25,622,0.0,0.0
2024-09-04 11:37:00-04:00,150.1300048828125,150.1699981689453,150.1300048828125,150.1699981689453,741,0.0,0.0
2024-09-04 11:39:00-04:00,150.25999450683594,150.25999450683594,150.25999450683594,150.25999450683594,387,0.0,0.0
2024-09-04 11:41:00-04:00,150.2550048828125,150.2550048828125,150.2550048828125,150.2550048828125,116,0.0,0.0
2024-09-04 11:42:00-04:00,150.3300018310547,150.3300018310547,150.3300018310547,150.3300018310547,601,0.0,0.0
2024-09-04 11:43:00-04:00,150.4600067138672,150.4600067138672,150.4600067138672,150.4600067138672,623,0.0,0.0
2024-09-04 11:46:00-04:00,150.3350067138672,150.3350067138672,150.3350067138672,150.3350067138672,172,0.0,0.0
2024-09-04 11:47:00-04:00,150.4600067138672,150.4600067138672,150.4600067138672,150.4600067138672,311,0.0,0.0
2024-09-04 11:48:00-04:00,150.25,150.25,150.25,150.25,128,0.0,0.0
2024-09-04 11:50:00-04:00,150.3300018310547,150.3350067138672,150.3300018310547,150.3350067138672,546,0.0,0.0
2024-09-04 11:51:00-04:00,150.35000610351562,150.36500549316406,150.35000610351562,150.36500549316406,346,0.0,0.0
2024-09-04 11:52:00-04:00,150.36500549316406,150.36500549316406,150.36500549316406,150.36500549316406,151,0.0,0.0
2024-09-04 11:53:00-04:00,150.375,150.375,150.375,150.375,141,0.0,0.0
2024-09-04 11:55:00-04:00,150.375,150.375,150.30999755859375,150.30999755859375,529,0.0,0.0
2024-09-04 11:58:00-04:00,150.24000549316406,150.24000549316406,150.24000549316406,150.24000549316406,165,0.0,0.0
2024-09-04 12:00:00-04:00,150.1699981689453,150.24000549316406,150.1699981689453,150.24000549316406,355,0.0,0.0
2024-09-04 12:03:00-04:00,150.27999877929688,150.27999877929688,150.27999877929688,150.27999877929688,413,0.0,0.0
2024-09-04 12:04:00-04:00,150.13999938964844,150.13999938964844,150.13999938964844,150.13999938964844,176,0.0,0.0
2024-09-04 12:05:00-04:00,150.0800018310547,150.0800018310547,150.0800018310547,150.0800018310547,185,0.0,0.0
2024-09-04 12:07:00-04:00,150.0850067138672,150.2174072265625,150.0850067138672,150.2174072265625,524,0.0,0.0
2024-09-04 12:09:00-04:00,149.9600067138672,149.9600067138672,149.9600067138672,149.9600067138672,137,0.0,0.0
2024-09-04 12:10:00-04:00,149.97999572753906,149.97999572753906,149.97999572753906,149.97999572753906,196,0.0,0.0
2024-09-04 12:11:00-04:00,149.97999572753906,150.05999755859375,149.9600067138672,150.05999755859375,932,0.0,0.0
2024-09-04 12:15:00-04:00,150.05499267578125,150.05499267578125,150.05499267578125,150.05499267578125,1194,0.0,0.0
2024-09-04 12:16:00-04:00,150.16000366210938,150.16000366210938,150.13999938964844,150.13999938964844,582,0.0,0.0
2024-09-04 12:18:00-04:00,150.22000122070312,150.22000122070312,150.22000122070312,150.22000122070312,751,0.0,0.0
2024-09-04 12:20:00-04:00,150.13499450683594,150.13499450683594,150.13499450683594,150.13499450683594,348,0.0,0.0
2024-09-04 12:21:00-04:00,150.14999389648438,150.14999389648438,150.14999389648438,150.14999389648438,148,0.0,0.0
2024-09-04 12:23:00-04:00,150.22500610351562,150.22500610351562,150.22500610351562,150.22500610351562,937,0.0,0.0
2024-09-04 12:24:00-04:00,150.3000030517578,150.3000030517578,150.3000030517578,150.3000030517578,313,0.0,0.0
2024-09-04 12:27:00-04:00,150.3000030517578,150.3000030517578,150.22999572753906,150.22999572753906,574,0.0,0.0
2024-09-04 12:34:00-04:00,150.35000610351562,150.35000610351562,150.35000610351562,150.35000610351562,500,0.0,0.0
2024-09-04 12:35:00-04:00,150.4199981689453,150.4199981689453,150.4199981689453,150.4199981689453,344,0.0,0.0
2024-09-04 12:36:00-04:00,150.39999389648438,150.39999389648438,150.39999389648438,150.39999389648438,210,0.0,0.0
2024-09-04 12:37:00-04:00,150.47999572753906,150.47999572753906,150.47999572753906,150.47999572753906,469,0.0,0.0
2024-09-04 12:41:00-04:00,150.3300018310547,150.41000366210938,150.3300018310547,150.41000366210938,336,0.0,0.0
2024-09-04 12:44:00-04:00,150.3699951171875,150.3699951171875,150.3699951171875,150.3699951171875,222,0.0,0.0
2024-09-04 12:45:00-04:00,150.34500122070312,150.34500122070312,150.34500122070312,150.34500122070312,104,0.0,0.0
2024-09-04 12:46:00-04:00,150.34500122070312,150.34500122070312,150.27000427246094,150.27000427246094,421,0.0,0.0
2024-09-04 12:52:00-04:00,150.2899932861328,150.4600067138672,150.2899932861328,150.4600067138672,1124,0.0,0.0
2024-09-04 13:03:00-04:00,150.4600067138672,150.4600067138672,150.38999938964844,150.4149932861328,1488,0.0,0.0
2024-09-04 13:08:00-04:00,150.3800048828125,150.3800048828125,150.3800048828125,150.3800048828125,156,0.0,0.0
2024-09-04 13:10:00-04:00,150.41000366210938,150.41000366210938,150.41000366210938,150.41000366210938,213,0.0,0.0
2024-09-04 13:13:00-04:00,150.4600067138672,150.4600067138672,150.4600067138672,150.4600067138672,390,0.0,0.0
2024-09-04 13:14:00-04:00,150.39999389648438,150.39999389648438,150.39999389648438,150.39999389648438,509,0.0,0.0
2024-09-04 13:16:00-04:00,150.38999938964844,150.39500427246094,150.35499572753906,150.35499572753906,840,0.0,0.0
2024-09-04 13:19:00-04:00,150.41000366210938,150.4199981689453,150.35000610351562,150.35000610351562,909,0.0,0.0
2024-09-04 13:20:00-04:00,150.35000610351562,150.35000610351562,150.35000610351562,150.35000610351562,233,0.0,0.0
2024-09-04 13:23:00-04:00,150.2899932861328,150.2899932861328,150.2899932861328,150.2899932861328,118,0.0,0.0
2024-09-04 13:24:00-04:00,150.17300415039062,150.17300415039062,150.17300415039062,150.17300415039062,333,0.0,0.0
2024-09-04 13:25:00-04:00,150.1999969482422,150.1999969482422,150.1999969482422,150.1999969482422,332,0.0,0.0
2024-09-04 13:26:00-04:00,150.24000549316406,150.24000549316406,150.24000549316406,150.24000549316406,743,0.0,0.0
2024-09-04 13:31:00-04:00,150.1199951171875,150.1999969482422,150.1199951171875,150.1999969482422,451,0.0,0.0
2024-09-04 13:33:00-04:00,150.1300048828125,150.1300048828125,150.1300048828125,150.1300048828125,554,0.0,0.0
2024-09-04 13:35:00-04:00,150.1750030517578,150.1750030517578,150.1750030517578,150.1750030517578,445,0.0,0.0
2024-09-04 13:37:00-04:00,150.1199951171875,150.1199951171875,150.1199951171875,150.1199951171875,717,0.0,0.0
2024-09-04 13:38:00-04:00,150.17999267578125,150.17999267578125,150.17999267578125,150.17999267578125,376,0.0,0.0
2024-09-04 13:39:00-04:00,150.27999877929688,150.27999877929688,150.22000122070312,150.27999877929688,739,0.0,0.0
2024-09-04 13:40:00-04:00,150.27999877929688,150.27999877929688,150.27999877929688,150.27999877929688,538,0.0,0.0
2024-09-04 13:42:00-04:00,150.30499267578125,150.30499267578125,150.30499267578125,150.30499267578125,116,0.0,0.0
2024-09-04 13:43:00-04:00,150.3000030517578,150.3000030517578,150.3000030517578,150.3000030517578,433,0.0,0.0
2024-09-04 13:49:00-04:00,150.26429748535156,150.36000061035156,150.2449951171875,150.36000061035156,948,0.0,0.0
2024-09-04 13:51:00-04:00,150.22500610351562,150.22500610351562,150.17999267578125,150.17999267578125,958,0.0,0.0
2024-09-04 13:57:00-04:00,150.1199951171875,150.1199951171875,150.1199951171875,150.1199951171875,164,0.0,0.0
2024-09-04 13:59:00-04:00,150.2899932861328,150.2899932861328,150.2899932861328,150.2899932861328,233,0.0,0.0
2024-09-04 14:01:00-04:00,150.16000366210938,150.16000366210938,149.85000610351562,149.97999572753906,2279,0.0,0.0
2024-09-04 14:02:00-04:00,150.05999755859375,150.05999755859375,150.05999755859375,150.05999755859375,262,0.0,0.0
2024-09-04 14:06:00-04:00,150.0050048828125,150.0050048828125,150.0050048828125,150.0050048828125,441,0.0,0.0
2024-09-04 14:16:00-04:00,150.13999938964844,150.14999389648438,150.13999938964844,150.14999389648438,807,0.0,0.0
2024-09-04 14:17:00-04:00,150.2899932861328,150.2899932861328,150.2899932861328,150.2899932861328,669,0.0,0.0
2024-09-04 14:18:00-04:00,150.27999877929688,150.27999877929688,150.27999877929688,150.27999877929688,678,0.0,0.0
2024-09-04 14:19:00-04:00,150.30499267578125,150.30499267578125,150.30499267578125,150.30499267578125,485,0.0,0.0
2024-09-04 14:23:00-04:00,150.30999755859375,150.30999755859375,150.30999755859375,150.30999755859375,326,0.0,0.0
2024-09-04 14:25:00-04:00,150.39999389648438,150.44000244140625,150.39999389648438,150.44000244140625,641,0.0,0.0
2024-09-04 14:26:00-04:00,150.52999877929688,150.53500366210938,150.36500549316406,150.36500549316406,1370,0.0,0.0
2024-09-04 14:28:00-04:00,150.39999389648438,150.39999389648438,150.39999389648438,150.39999389648438,491,0.0,0.0
2024-09-04 14:32:00-04:00,150.44000244140625,150.44000244140625,150.3800048828125,150.3800048828125,1078,0.0,0.0
2024-09-04 14:37:00-04:00,150.3800048828125,150.3800048828125,150.3300018310547,150.3300018310547,481,0.0,0.0
2024-09-04 14:39:00-04:00,150.3300018310547,150.3300018310547,150.32000732421875,150.32000732421875,946,0.0,0.0
2024-09-04 14:40:00-04:00,150.4199981689453,150.5,150.4199981689453,150.5,1474,0.0,0.0
2024-09-04 14:43:00-04:00,150.38999938964844,150.38999938964844,150.38999938964844,150.38999938964844,206,0.0,0.0
2024-09-04 14:47:00-04:00,150.4499969482422,150.4499969482422,150.4499969482422,150.4499969482422,118,0.0,0.0
2024-09-04 14:48:00-04:00,150.4499969482422,150.48300170898438,150.4499969482422,150.48300170898438,446,0.0,0.0
2024-09-04 14:52:00-04:00,150.36000061035156,150.39999389648438,150.36000061035156,150.39999389648438,1239,0.0,0.0
2024-09-04 14:53:00-04:00,150.44000244140625,150.44000244140625,150.44000244140625,150.44000244140625,593,0.0,0.0
2024-09-04 14:57:00-04:00,150.44000244140625,150.44000244140625,150.44000244140625,150.44000244140625,132,0.0,0.0
2024-09-04 15:00:00-04:00,150.39999389648438,150.39999389648438,150.39999389648438,150.39999389648438,105,0.0,0.0
2024-09-04 15:01:00-04:00,150.49270629882812,150.49270629882812,150.49270629882812,150.49270629882812,440,0.0,0.0
2024-09-04 15:02:00-04:00,150.35499572753906,150.35499572753906,150.3249969482422,150.34500122070312,1188,0.0,0.0
2024-09-04 15:04:00-04:00,150.25999450683594,150.3350067138672,150.25999450683594,150.3350067138672,640,0.0,0.0
2024-09-04 15:06:00-04:00,150.22000122070312,150.25999450683594,150.22000122070312,150.22000122070312,679,0.0,0.0
2024-09-04 15:08:00-04:00,150.3000030517578,150.3000030517578,150.3000030517578,150.3000030517578,582,0.0,0.0
2024-09-04 15:13:00-04:00,150.3000030517578,150.34500122070312,150.3000030517578,150.33999633789062,2606,0.0,0.0
2024-09-04 15:15:00-04:00,150.3699951171875,150.3699951171875,150.3699951171875,150.3699951171875,175,0.0,0.0
2024-09-04 15:16:00-04:00,150.38999938964844,150.41000366210938,150.38999938964844,150.41000366210938,1125,0.0,0.0
2024-09-04 15:17:00-04:00,150.41000366210938,150.41000366210938,150.41000366210938,150.41000366210938,669,0.0,0.0
2024-09-04 15:24:00-04:00,150.42999267578125,150.42999267578125,150.42999267578125,150.42999267578125,639,0.0,0.0
2024-09-04 15:28:00-04:00,150.49899291992188,150.49899291992188,150.49000549316406,150.49000549316406,350,0.0,0.0
2024-09-04 15:29:00-04:00,150.5,150.5,150.49000549316406,150.49000549316406,592,0.0,0.0
2024-09-04 15:30:00-04:00,150.57000732421875,150.57000732421875,150.57000732421875,150.57000732421875,478,0.0,0.0
2024-09-04 15:32:00-04:00,150.41000366210938,150.44000244140625,150.41000366210938,150.44000244140625,681,0.0,0.0
2024-09-04 15:33:00-04:00,150.4199981689453,150.4199981689453,150.4199981689453,150.4199981689453,270,0.0,0.0
2024-09-04 15:34:00-04:00,150.36000061035156,150.36000061035156,150.32000732421875,150.32000732421875,664,0.0,0.0
2024-09-04 15:37:00-04:00,150.41400146484375,150.4199981689453,150.41400146484375,150.4199981689453,354,0.0,0.0
2024-09-04 15:38:00-04:00,150.4199981689453,150.44000244140625,150.4149932861328,150.4149932861328,1175,0.0,0.0
2024-09-04 15:39:00-04:00,150.47900390625,150.47900390625,150.4600067138672,150.4600067138672,306,0.0,0.0
2024-09-04 15:40:00-04:00,150.44000244140625,150.4600067138672,150.44000244140625,150.44000244140625,1470,0.0,0.0
2024-09-04 15:41:00-04:00,150.4199981689453,150.4199981689453,150.4199981689453,150.4199981689453,288,0.0,0.0
2024-09-04 15:42:00-04:00,150.44000244140625,150.44000244140625,150.44000244140625,150.44000244140625,1355,0.0,0.0
2024-09-04 15:45:00-04:00,150.52999877929688,150.56900024414062,150.52999877929688,150.56900024414062,394,0.0,0.0
2024-09-04 15:48:00-04:00,150.5800018310547,150.5800018310547,150.5800018310547,150.5800018310547,533,0.0,0.0
2024-09-04 15:49:00-04:00,150.5989990234375,150.5989990234375,150.52000427246094,150.52000427246094,476,0.0,0.0
2024-09-04 15:50:00-04:00,150.57000732421875,150.57000732421875,150.4600067138672,150.50999450683594,2041,0.0,0.0
2024-09-04 15:51:00-04:00,150.60000610351562,150.718994140625,150.5,150.5,3488,0.0,0.0
2024-09-04 15:52:00-04:00,150.5800018310547,150.5800018310547,150.5800018310547,150.5800018310547,369,0.0,0.0
2024-09-04 15:53:00-04:00,150.50999450683594,150.52000427246094,150.47999572753906,150.47999572753906,730,0.0,0.0
2024-09-04 15:54:00-04:00,150.47999572753906,150.47999572753906,150.47999572753906,150.47999572753906,564,0.0,0.0
2024-09-04 15:55:00-04:00,150.39500427246094,150.5,150.39500427246094,150.5,3135,0.0,0.0
2024-09-04 15:56:00-04:00,150.54299926757812,150.6300048828125,150.54299926757812,150.61000061035156,3740,0.0,0.0
2024-09-04 15:57:00-04:00,150.6999969482422,150.6999969482422,150.64999389648438,150.6699981689453,2243,0.0,0.0
2024-09-04 15:58:00-04:00,150.66000366210938,150.81500244140625,150.66000366210938,150.75,4627,0.0,0.0
2024-09-04 15:59:00-04:00,150.77999877929688,150.89999389648438,150.72999572753906,150.8000030517578,11350,0.0,0.0
2024-09-05 09:30:00-04:00,151.0800018310547,151.75999450683594,151.0800018310547,151.75999450683594,1454,0.0,0.0
2024-09-05 09:32:00-04:00,150.91580200195312,150.91580200195312,150.91580200195312,150.91580200195312,162,0.0,0.0
2024-09-05 09:34:00-04:00,150.4600067138672,150.4600067138672,150.42999267578125,150.42999267578125,449,0.0,0.0
2024-09-05 09:37:00-04:00,150.59500122070312,150.59500122070312,150.59500122070312,150.59500122070312,184,0.0,0.0
2024-09-05 09:39:00-04:00,150.72000122070312,150.72000122070312,150.72000122070312,150.72000122070312,740,0.0,0.0
2024-09-05 09:42:00-04:00,151.0800018310547,151.0800018310547,151.0800018310547,151.0800018310547,1152,0.0,0.0
2024-09-05 09:47:00-04:00,151.19000244140625,151.19000244140625,151.19000244140625,151.19000244140625,332,0.0,0.0
2024-09-05 09:48:00-04:00,150.5800018310547,150.58999633789062,150.57000732421875,150.58999633789062,531,0.0,0.0
2024-09-05 09:49:00-04:00,150.5399932861328,150.5399932861328,150.5399932861328,150.5399932861328,328,0.0,0.0
2024-09-05 09:52:00-04:00,150.38600158691406,150.38600158691406,150.38600158691406,150.38600158691406,653,0.0,0.0
2024-09-05 09:57:00-04:00,150.10000610351562,150.28500366210938,150.10000610351562,150.27999877929688,872,0.0,0.0
2024-09-05 10:01:00-04:00,150.39999389648438,150.39999389648438,150.39999389648438,150.39999389648438,141,0.0,0.0
2024-09-05 10:02:00-04:00,150.33999633789062,150.7100067138672,150.33999633789062,150.7100067138672,1049,0.0,0.0
2024-09-05 10:03:00-04:00,150.7100067138672,150.7100067138672,150.6999969482422,150.7100067138672,862,0.0,0.0
2024-09-05 10:07:00-04:00,150.8800048828125,150.8800048828125,150.8800048828125,150.8800048828125,229,0.0,0.0
2024-09-05 10:08:00-04:00,150.5800018310547,150.8000030517578,150.5800018310547,150.63999938964844,466,0.0,0.0
2024-09-05 10:10:00-04:00,150.67999267578125,150.67999267578125,150.67999267578125,150.67999267578125,291,0.0,0.0
2024-09-05 10:11:00-04:00,150.52000427246094,150.52999877929688,150.47999572753906,150.52999877929688,1188,0.0,0.0
2024-09-05 10:12:00-04:00,150.5500030517578,150.77000427246094,150.53500366210938,150.77000427246094,1429,0.0,0.0
2024-09-05 10:14:00-04:00,150.75900268554688,150.75900268554688,150.75900268554688,150.75900268554688,107,0.0,0.0
2024-09-05 10:15:00-04:00,150.77000427246094,150.77999877929688,150.72000122070312,150.72000122070312,670,0.0,0.0
2024-09-05 10:16:00-04:00,150.75900268554688,150.75900268554688,150.55999755859375,150.55999755859375,880,0.0,0.0
2024-09-05 10:17:00-04:00,150.67999267578125,150.67999267578125,150.67999267578125,150.67999267578125,102,0.0,0.0
2024-09-05 10:18:00-04:00,150.8000030517578,150.8000030517578,150.8000030517578,150.8000030517578,267,0.0,0.0
2024-09-05 10:19:00-04:00,150.84500122070312,150.84500122070312,150.84500122070312,150.84500122070312,357,0.0,0.0
2024-09-05 10:21:00-04:00,150.72999572753906,150.86000061035156,150.72999572753906,150.86000061035156,303,0.0,0.0
2024-09-05 10:22:00-04:00,150.86000061035156,150.86000061035156,150.52999877929688,150.52999877929688,205,0.0,0.0
2024-09-05 10:23:00-04:00,150.75,150.75,150.73500061035156,150.73500061035156,407,0.0,0.0
2024-09-05 10:27:00-04:00,150.9499969482422,151.0189971923828,150.90499877929688,150.90499877929688,1407,0.0,0.0
2024-09-05 10:28:00-04:00,151.0,151.0,150.90499877929688,150.90499877929688,351,0.0,0.0
2024-09-05 10:30:00-04:00,151.02000427246094,151.02000427246094,151.02000427246094,151.02000427246094,1030,0.0,0.0
2024-09-05 10:31:00-04:00,151.11500549316406,151.2100067138672,151.05999755859375,151.11500549316406,513,0.0,0.0
2024-09-05 10:32:00-04:00,151.1999969482422,151.1999969482422,151.1999969482422,151.1999969482422,265,0.0,0.0
2024-09-05 10:33:00-04:00,151.1699981689453,151.1699981689453,151.1699981689453,151.1699981689453,157,0.0,0.0
2024-09-05 10:34:00-04:00,151.0800018310547,151.1699981689453,151.0800018310547,151.1699981689453,497,0.0,0.0
2024-09-05 10:36:00-04:00,150.99000549316406,150.99000549316406,150.9499969482422,150.99000549316406,2387,0.0,0.0
2024-09-05 10:40:00-04:00,150.77499389648438,150.77499389648438,150.67999267578125,150.67999267578125,334,0.0,0.0
2024-09-05 10:43:00-04:00,150.91000366210938,150.94000244140625,150.91000366210938,150.94000244140625,540,0.0,0.0
2024-09-05 10:46:00-04:00,150.7100067138672,150.72000122070312,150.7100067138672,150.72000122070312,510,0.0,0.0
2024-09-05 10:47:00-04:00,150.75,150.77999877929688,150.69000244140625,150.77999877929688,1633,0.0,0.0
2024-09-05 10:52:00-04:00,150.80499267578125,150.80499267578125,150.80499267578125,150.80499267578125,234,0.0,0.0
2024-09-05 10:54:00-04:00,150.6699981689453,150.69000244140625,150.6199951171875,150.6199951171875,1434,0.0,0.0
2024-09-05 10:55:00-04:00,150.77000427246094,150.77000427246094,150.77000427246094,150.77000427246094,166,0.0,0.0
2024-09-05 10:56:00-04:00,150.77499389648438,150.77499389648438,150.77499389648438,150.77499389648438,168,0.0,0.0
2024-09-05 10:58:00-04:00,150.77000427246094,150.77000427246094,150.6199951171875,150.73500061035156,1046,0.0,0.0
2024-09-05 10:59:00-04:00,150.63999938964844,150.63999938964844,150.63999938964844,150.63999938964844,244,0.0,0.0
2024-09-05 11:01:00-04:00,150.63499450683594,150.65499877929688,150.63499450683594,150.65499877929688,221,0.0,0.0
2024-09-05 11:02:00-04:00,150.65499877929688,150.6649932861328,150.65499877929688,150.6649932861328,531,0.0,0.0
2024-09-05 11:05:00-04:00,150.80999755859375,150.8249969482422,150.67999267578125,150.67999267578125,1418,0.0,0.0
2024-09-05 11:07:00-04:00,150.67999267578125,150.67999267578125,150.67999267578125,150.67999267578125,114,0.0,0.0
2024-09-05 11:11:00-04:00,150.63999938964844,150.69000244140625,150.63999938964844,150.69000244140625,512,0.0,0.0
2024-09-05 11:12:00-04:00,150.60000610351562,150.60000610351562,150.60000610351562,150.60000610351562,213,0.0,0.0
2024-09-05 11:13:00-04:00,150.55999755859375,150.72300720214844,150.55999755859375,150.72300720214844,2504,0.0,0.0
2024-09-05 11:14:00-04:00,150.66000366210938,150.66000366210938,150.57000732421875,150.57000732421875,1139,0.0,0.0
2024-09-05 11:17:00-04:00,150.6649932861328,150.6649932861328,150.66000366210938,150.66000366210938,460,0.0,0.0
2024-09-05 11:19:00-04:00,150.57000732421875,150.57000732421875,150.57000732421875,150.57000732421875,214,0.0,0.0
2024-09-05 11:21:00-04:00,150.66000366210938,150.66000366210938,150.66000366210938,150.66000366210938,1136,0.0,0.0
2024-09-05 11:22:00-04:00,150.66000366210938,150.76499938964844,150.66000366210938,150.75999450683594,1400,0.0,0.0
2024-09-05 11:23:00-04:00,150.76499938964844,150.76499938964844,150.76499938964844,150.76499938964844,100,0.0,0.0
2024-09-05 11:24:00-04:00,150.76499938964844,150.76499938964844,150.76499938964844,150.76499938964844,303,0.0,0.0
2024-09-05 11:25:00-04:00,150.6699981689453,150.72999572753906,150.60000610351562,150.60000610351562,2265,0.0,0.0
2024-09-05 11:27:00-04:00,150.75,150.7550048828125,150.69500732421875,150.69500732421875,603,0.0,0.0
2024-09-05 11:29:00-04:00,150.69500732421875,150.69500732421875,150.69500732421875,150.69500732421875,363,0.0,0.0
2024-09-05 11:30:00-04:00,150.72500610351562,150.82000732421875,150.72500610351562,150.82000732421875,830,0.0,0.0
2024-09-05 11:32:00-04:00,150.82000732421875,150.82000732421875,150.81900024414062,150.82000732421875,401,0.0,0.0
2024-09-05 11:36:00-04:00,150.72500610351562,150.72500610351562,150.72500610351562,150.72500610351562,616,0.0,0.0
2024-09-05 11:40:00-04:00,150.74000549316406,150.74000549316406,150.74000549316406,150.74000549316406,519,0.0,0.0
2024-09-05 11:41:00-04:00,150.66000366210938,150.75,150.4600067138672,150.4600067138672,7505,0.0,0.0
2024-09-05 11:42:00-04:00,150.38999938964844,150.38999938964844,150.38999938964844,150.38999938964844,236,0.0,0.0
2024-09-05 11:43:00-04:00,150.32000732421875,150.52999877929688,150.32000732421875,150.52999877929688,3924,0.0,0.0
2024-09-05 11:48:00-04:00,150.5050048828125,150.57000732421875,150.5,150.57000732421875,693,0.0,0.0
2024-09-05 11:51:00-04:00,150.50999450683594,150.50999450683594,150.50999450683594,150.50999450683594,100,0.0,0.0
2024-09-05 11:52:00-04:00,150.54400634765625,150.54400634765625,150.39999389648438,150.47999572753906,2189,0.0,0.0
2024-09-05 11:53:00-04:00,150.47000122070312,150.47000122070312,150.47000122070312,150.47000122070312,329,0.0,0.0
2024-09-05 11:54:00-04:00,150.5500030517578,150.55499267578125,150.5500030517578,150.55499267578125,427,0.0,0.0
2024-09-05 11:55:00-04:00,150.5449981689453,150.5449981689453,150.5449981689453,150.5449981689453,298,0.0,0.0
2024-09-05 11:59:00-04:00,150.4499969482422,150.4499969482422,150.41000366210938,150.43499755859375,1342,0.0,0.0
2024-09-05 12:05:00-04:00,150.4949951171875,150.4949951171875,150.4199981689453,150.4199981689453,1273,0.0,0.0
2024-09-05 12:10:00-04:00,150.375,150.375,150.375,150.375,286,0.0,0.0
2024-09-05 12:13:00-04:00,150.4199981689453,150.4199981689453,150.4199981689453,150.4199981689453,348,0.0,0.0
2024-09-05 12:14:00-04:00,150.4199981689453,150.4199981689453,150.3300018310547,150.3300018310547,421,0.0,0.0
2024-09-05 12:15:00-04:00,150.3249969482422,150.3249969482422,150.3249969482422,150.3249969482422,229,0.0,0.0
2024-09-05 12:16:00-04:00,150.32000732421875,150.32000732421875,150.25,150.31500244140625,647,0.0,0.0
2024-09-05 12:17:00-04:00,150.27499389648438,150.27499389648438,150.27499389648438,150.27499389648438,201,0.0,0.0
2024-09-05 12:18:00-04:00,150.3300018310547,150.3300018310547,150.3300018310547,150.3300018310547,314,0.0,0.0
2024-09-05 12:19:00-04:00,150.27999877929688,150.39999389648438,150.27999877929688,150.3800048828125,1022,0.0,0.0
2024-09-05 12:20:00-04:00,150.39999389648438,150.39999389648438,150.39999389648438,150.39999389648438,213,0.0,0.0
2024-09-05 12:22:00-04:00,150.41000366210938,150.4199981689453,150.41000366210938,150.4199981689453,636,0.0,0.0
2024-09-05 12:23:00-04:00,150.5,150.5,150.5,150.5,113,0.0,0.0
2024-09-05 12:24:00-04:00,150.55999755859375,150.55999755859375,150.55999755859375,150.55999755859375,242,0.0,0.0
2024-09-05 12:25:00-04:00,150.50999450683594,150.50999450683594,150.49000549316406,150.49000549316406,976,0.0,0.0
2024-09-05 12:27:00-04:00,150.49000549316406,150.49000549316406,150.49000549316406,150.49000549316406,101,0.0,0.0
2024-09-05 12:28:00-04:00,150.41000366210938,150.41000366210938,150.41000366210938,150.41000366210938,156,0.0,0.0
2024-09-05 12:31:00-04:00,150.32049560546875,150.32049560546875,150.32049560546875,150.32049560546875,656,0.0,0.0
2024-09-05 12:35:00-04:00,150.406005859375,150.406005859375,150.406005859375,150.406005859375,311,0.0,0.0
2024-09-05 12:38:00-04:00,150.32000732421875,150.32000732421875,150.27999877929688,150.27999877929688,565,0.0,0.0
2024-09-05 12:41:00-04:00,150.2949981689453,150.2949981689453,150.2949981689453,150.2949981689453,167,0.0,0.0
2024-09-05 12:42:00-04:00,150.36000061035156,150.3699951171875,150.36000061035156,150.3699951171875,515,0.0,0.0
2024-09-05 12:43:00-04:00,150.3000030517578,150.3000030517578,150.3000030517578,150.3000030517578,387,0.0,0.0
2024-09-05 12:44:00-04:00,150.23500061035156,150.24249267578125,150.23500061035156,150.24249267578125,249,0.0,0.0
2024-09-05 12:48:00-04:00,150.2100067138672,150.2100067138672,150.2100067138672,150.2100067138672,103,0.0,0.0
2024-09-05 12:49:00-04:00,150.35000610351562,150.35000610351562,150.35000610351562,150.35000610351562,456,0.0,0.0
2024-09-05 12:50:00-04:00,150.38999938964844,150.38999938964844,150.38999938964844,150.38999938964844,175,0.0,0.0
2024-09-05 12:54:00-04:00,150.3000030517578,150.3000030517578,150.3000030517578,150.3000030517578,330,0.0,0.0
2024-09-05 12:56:00-04:00,150.44000244140625,150.4600067138672,150.44000244140625,150.4600067138672,411,0.0,0.0
2024-09-05 12:58:00-04:00,150.4600067138672,150.4600067138672,150.4199981689453,150.4199981689453,980,0.0,0.0
2024-09-05 13:01:00-04:00,150.35000610351562,150.35000610351562,150.35000610351562,150.35000610351562,114,0.0,0.0
2024-09-05 13:04:00-04:00,150.25999450683594,150.25999450683594,150.25999450683594,150.25999450683594,283,0.0,0.0
2024-09-05 13:06:00-04:00,150.22000122070312,150.22000122070312,150.19000244140625,150.19000244140625,270,0.0,0.0
2024-09-05 13:09:00-04:00,150.2100067138672,150.2100067138672,150.2100067138672,150.2100067138672,186,0.0,0.0
2024-09-05 13:11:00-04:00,150.3350067138672,150.3350067138672,150.3350067138672,150.3350067138672,244,0.0,0.0
2024-09-05 13:13:00-04:00,150.25999450683594,150.25999450683594,150.25999450683594,150.25999450683594,231,0.0,0.0
2024-09-05 13:15:00-04:00,150.22000122070312,150.22000122070312,150.22000122070312,150.22000122070312,454,0.0,0.0
2024-09-05 13:19:00-04:00,150.32000732421875,150.32000732421875,150.22000122070312,150.22000122070312,440,0.0,0.0
2024-09-05 13:21:00-04:00,150.10000610351562,150.10000610351562,150.10000610351562,150.10000610351562,164,0.0,0.0
2024-09-05 13:22:00-04:00,150.19500732421875,150.19500732421875,150.1750030517578,150.1750030517578,339,0.0,0.0
2024-09-05 13:23:00-04:00,150.11000061035156,150.11000061035156,150.11000061035156,150.11000061035156,372,0.0,0.0
2024-09-05 13:26:00-04:00,150.10000610351562,150.22999572753906,150.10000610351562,150.14999389648438,938,0.0,0.0
2024-09-05 13:29:00-04:00,149.9550018310547,149.9550018310547,149.9499969482422,149.9499969482422,295,0.0,0.0
2024-09-05 13:31:00-04:00,150.15499877929688,150.15499877929688,150.15499877929688,150.15499877929688,264,0.0,0.0
2024-09-05 13:32:00-04:00,150.2469940185547,150.2469940185547,150.2469940185547,150.2469940185547,406,0.0,0.0
2024-09-05 13:34:00-04:00,150.27000427246094,150.3000030517578,150.16000366210938,150.27000427246094,1989,0.0,0.0
2024-09-05 13:35:00-04:00,150.28500366210938,150.28500366210938,150.28500366210938,150.28500366210938,240,0.0,0.0
2024-09-05 13:37:00-04:00,150.35000610351562,150.35000610351562,150.35000610351562,150.35000610351562,763,0.0,0.0
2024-09-05 13:38:00-04:00,150.4199981689453,150.4199981689453,150.3350067138672,150.3350067138672,393,0.0,0.0
2024-09-05 13:41:00-04:00,150.38999938964844,150.38999938964844,150.30999755859375,150.30999755859375,257,0.0,0.0
2024-09-05 13:43:00-04:00,150.32000732421875,150.32000732421875,150.32000732421875,150.32000732421875,306,0.0,0.0
2024-09-05 13:46:00-04:00,150.38999938964844,150.4499969482422,150.38999938964844,150.4499969482422,624,0.0,0.0
2024-09-05 13:47:00-04:00,150.60000610351562,150.60000610351562,150.60000610351562,150.60000610351562,400,0.0,0.0
2024-09-05 13:48:00-04:00,150.67250061035156,150.67250061035156,150.67250061035156,150.67250061035156,111,0.0,0.0
2024-09-05 13:49:00-04:00,150.49000549316406,150.49000549316406,150.49000549316406,150.49000549316406,102,0.0,0.0
2024-09-05 13:50:00-04:00,150.5800018310547,150.5800018310547,150.43499755859375,150.43499755859375,1680,0.0,0.0
2024-09-05 13:51:00-04:00,150.4600067138672,150.4600067138672,150.4600067138672,150.4600067138672,229,0.0,0.0
2024-09-05 13:56:00-04:00,150.3699951171875,150.3699951171875,150.3699951171875,150.3699951171875,126,0.0,0.0
2024-09-05 13:57:00-04:00,150.55999755859375,150.55999755859375,150.50999450683594,150.50999450683594,466,0.0,0.0
2024-09-05 14:02:00-04:00,150.55499267578125,150.55499267578125,150.5500030517578,150.5500030517578,844,0.0,0.0
2024-09-05 14:06:00-04:00,150.58999633789062,150.58999633789062,150.58999633789062,150.58999633789062,302,0.0,0.0
2024-09-05 14:07:00-04:00,150.58999633789062,150.60000610351562,150.58999633789062,150.60000610351562,439,0.0,0.0
2024-09-05 14:08:00-04:00,150.5399932861328,150.60000610351562,150.5399932861328,150.60000610351562,284,0.0,0.0
2024-09-05 14:09:00-04:00,150.57000732421875,150.57000732421875,150.57000732421875,150.57000732421875,207,0.0,0.0
2024-09-05 14:11:00-04:00,150.60800170898438,150.60800170898438,150.60800170898438,150.60800170898438,146,0.0,0.0
2024-09-05 14:12:00-04:00,150.50010681152344,150.50010681152344,150.50010681152344,150.50010681152344,219,0.0,0.0
2024-09-05 14:14:00-04:00,150.50999450683594,150.50999450683594,150.50999450683594,150.50999450683594,211,0.0,0.0
2024-09-05 14:15:00-04:00,150.60000610351562,150.60000610351562,150.60000610351562,150.60000610351562,329,0.0,0.0
2024-09-05 14:16:00-04:00,150.55999755859375,150.55999755859375,150.52000427246094,150.52000427246094,818,0.0,0.0
2024-09-05 14:17:00-04:00,150.7100067138672,150.7100067138672,150.7100067138672,150.7100067138672,331,0.0,0.0
2024-09-05 14:19:00-04:00,150.6649932861328,150.6649932861328,150.6649932861328,150.6649932861328,140,0.0,0.0
2024-09-05 14:20:00-04:00,150.60499572753906,150.66900634765625,150.60000610351562,150.66900634765625,768,0.0,0.0
2024-09-05 14:21:00-04:00,150.5399932861328,150.5399932861328,150.5399932861328,150.5399932861328,177,0.0,0.0
2024-09-05 14:23:00-04:00,150.5449981689453,150.5449981689453,150.5449981689453,150.5449981689453,498,0.0,0.0
2024-09-05 14:26:00-04:00,150.5,150.5,150.5,150.5,294,0.0,0.0
2024-09-05 14:27:00-04:00,150.5500030517578,150.5500030517578,150.50999450683594,150.50999450683594,650,0.0,0.0
2024-09-05 14:30:00-04:00,150.5,150.5,150.4250030517578,150.49000549316406,2102,0.0,0.0
2024-09-05 14:31:00-04:00,150.5,150.52000427246094,150.5,150.52000427246094,336,0.0,0.0
2024-09-05 14:32:00-04:00,150.60000610351562,150.60000610351562,150.60000610351562,150.60000610351562,191,0.0,0.0
2024-09-05 14:33:00-04:00,150.60000610351562,150.60000610351562,150.60000610351562,150.60000610351562,678,0.0,0.0
2024-09-05 14:35:00-04:00,150.5500030517578,150.5500030517578,150.5500030517578,150.5500030517578,311,0.0,0.0
2024-09-05 14:39:00-04:00,150.6999969482422,150.70899963378906,150.6999969482422,150.6999969482422,463,0.0,0.0
2024-09-05 14:40:00-04:00,150.5749969482422,150.5749969482422,150.5749969482422,150.5749969482422,134,0.0,0.0
2024-09-05 14:41:00-04:00,150.63499450683594,150.63499450683594,150.63499450683594,150.63499450683594,319,0.0,0.0
2024-09-05 14:44:00-04:00,150.63999938964844,150.63999938964844,150.63999938964844,150.63999938964844,173,0.0,0.0
2024-09-05 14:46:00-04:00,150.5800018310547,150.5800018310547,150.5800018310547,150.5800018310547,158,0.0,0.0
2024-09-05 14:47:00-04:00,150.69000244140625,150.7449951171875,150.69000244140625,150.74000549316406,623,0.0,0.0
2024-09-05 14:49:00-04:00,150.69000244140625,150.69000244140625,150.69000244140625,150.69000244140625,557,0.0,0.0
2024-09-05 14:51:00-04:00,150.7449951171875,150.7449951171875,150.7449951171875,150.7449951171875,691,0.0,0.0
2024-09-05 14:52:00-04:00,150.74000549316406,150.78900146484375,150.74000549316406,150.78900146484375,232,0.0,0.0
2024-09-05 14:53:00-04:00,150.74000549316406,150.7899932861328,150.74000549316406,150.7899932861328,1018,0.0,0.0
2024-09-05 14:55:00-04:00,150.7949981689453,150.7949981689453,150.7949981689453,150.7949981689453,208,0.0,0.0
2024-09-05 14:57:00-04:00,150.7100067138672,150.7100067138672,150.5399932861328,150.64500427246094,1410,0.0,0.0
2024-09-05 15:00:00-04:00,150.52499389648438,150.52499389648438,150.52499389648438,150.52499389648438,206,0.0,0.0
2024-09-05 15:02:00-04:00,150.52000427246094,150.52000427246094,150.52000427246094,150.52000427246094,1169,0.0,0.0
2024-09-05 15:04:00-04:00,150.5449981689453,150.60000610351562,150.5449981689453,150.60000610351562,1105,0.0,0.0
2024-09-05 15:07:00-04:00,150.5,150.5,150.38999938964844,150.38999938964844,419,0.0,0.0
2024-09-05 15:09:00-04:00,150.48500061035156,150.48500061035156,150.48500061035156,150.48500061035156,209,0.0,0.0
2024-09-05 15:12:00-04:00,150.38999938964844,150.44000244140625,150.38999938964844,150.44000244140625,251,0.0,0.0
2024-09-05 15:13:00-04:00,150.44000244140625,150.44000244140625,150.44000244140625,150.44000244140625,145,0.0,0.0
2024-09-05 15:15:00-04:00,150.44000244140625,150.44000244140625,150.36500549316406,150.36500549316406,690,0.0,0.0
2024-09-05 15:16:00-04:00,150.35000610351562,150.35000610351562,150.35000610351562,150.35000610351562,185,0.0,0.0
2024-09-05 15:18:00-04:00,150.2100067138672,150.2100067138672,150.2100067138672,150.2100067138672,101,0.0,0.0
2024-09-05 15:19:00-04:00,150.35989379882812,150.3800048828125,150.33999633789062,150.36000061035156,1255,0.0,0.0
2024-09-05 15:20:00-04:00,150.3000030517578,150.3000030517578,150.3000030517578,150.3000030517578,598,0.0,0.0
2024-09-05 15:23:00-04:00,150.3509979248047,150.3699951171875,150.28750610351562,150.3000030517578,868,0.0,0.0
2024-09-05 15:25:00-04:00,150.30499267578125,150.39999389648438,150.30499267578125,150.32000732421875,2192,0.0,0.0
2024-09-05 15:28:00-04:00,150.39999389648438,150.41000366210938,150.39999389648438,150.41000366210938,597,0.0,0.0
2024-09-05 15:29:00-04:00,150.4199981689453,150.4199981689453,150.4199981689453,150.4199981689453,317,0.0,0.0
2024-09-05 15:30:00-04:00,150.48500061035156,150.5489959716797,150.4600067138672,150.5489959716797,1116,0.0,0.0
2024-09-05 15:31:00-04:00,150.51499938964844,150.55999755859375,150.5050048828125,150.55999755859375,714,0.0,0.0
2024-09-05 15:32:00-04:00,150.5800018310547,150.60000610351562,150.5800018310547,150.60000610351562,458,0.0,0.0
2024-09-05 15:33:00-04:00,150.60000610351562,150.66000366210938,150.60000610351562,150.60499572753906,928,0.0,0.0
2024-09-05 15:34:00-04:00,150.85989379882812,150.85989379882812,150.85989379882812,150.85989379882812,170,0.0,0.0
2024-09-05 15:35:00-04:00,150.8350067138672,150.8350067138672,150.69000244140625,150.69000244140625,1466,0.0,0.0
2024-09-05 15:36:00-04:00,150.74000549316406,150.7899932861328,150.74000549316406,150.7899932861328,543,0.0,0.0
2024-09-05 15:37:00-04:00,150.89999389648438,150.89999389648438,150.85499572753906,150.85499572753906,245,0.0,0.0
2024-09-05 15:38:00-04:00,150.72000122070312,150.8498992919922,150.72000122070312,150.8498992919922,596,0.0,0.0
2024-09-05 15:39:00-04:00,150.83700561523438,150.83700561523438,150.83700561523438,150.83700561523438,437,0.0,0.0
2024-09-05 15:40:00-04:00,150.78500366210938,150.83999633789062,150.6699981689453,150.77999877929688,2256,0.0,0.0
2024-09-05 15:41:00-04:00,150.8000030517578,150.80999755859375,150.77000427246094,150.80999755859375,848,0.0,0.0
2024-09-05 15:42:00-04:00,150.83900451660156,150.83900451660156,150.83900451660156,150.83900451660156,130,0.0,0.0
2024-09-05 15:43:00-04:00,150.78500366210938,150.78500366210938,150.63999938964844,150.63999938964844,1238,0.0,0.0
2024-09-05 15:45:00-04:00,150.6999969482422,150.74000549316406,150.6199951171875,150.74000549316406,2482,0.0,0.0
2024-09-05 15:46:00-04:00,150.73899841308594,150.73899841308594,150.64999389648438,150.67999267578125,609,0.0,0.0
2024-09-05 15:47:00-04:00,150.63499450683594,150.63499450683594,150.5659942626953,150.5659942626953,1042,0.0,0.0
2024-09-05 15:48:00-04:00,150.52999877929688,150.60000610351562,150.52999877929688,150.60000610351562,2663,0.0,0.0
2024-09-05 15:49:00-04:00,150.60000610351562,150.67999267578125,150.60000610351562,150.67999267578125,613,0.0,0.0
2024-09-05 15:50:00-04:00,150.67999267578125,150.75,150.6199951171875,150.67999267578125,4573,0.0,0.0
2024-09-05 15:51:00-04:00,150.64999389648438,150.64999389648438,150.64999389648438,150.64999389648438,424,0.0,0.0
2024-09-05 15:52:00-04:00,150.5399932861328,150.55999755859375,150.5399932861328,150.5399932861328,2169,0.0,0.0
2024-09-05 15:53:00-04:00,150.52999877929688,150.61500549316406,150.49000549316406,150.61500549316406,3550,0.0,0.0
2024-09-05 15:54:00-04:00,150.57000732421875,150.64999389648438,150.57000732421875,150.5749969482422,1883,0.0,0.0
2024-09-05 15:55:00-04:00,150.6199951171875,150.7299041748047,150.6199951171875,150.63999938964844,2673,0.0,0.0
2024-09-05 15:56:00-04:00,150.61000061035156,150.61000061035156,150.50999450683594,150.50999450683594,2543,0.0,0.0
2024-09-05 15:57:00-04:00,150.5500030517578,150.5500030517578,150.44000244140625,150.44000244140625,2575,0.0,0.0
2024-09-05 15:58:00-04:00,150.44000244140625,150.4600067138672,150.41000366210938,150.4600067138672,3318,0.0,0.0
2024-09-05 15:59:00-04:00,150.5800018310547,150.74000549316406,150.5800018310547,150.72999572753906,11225,0.0,0.0
2024-09-06 09:30:00-04:00,150.3800048828125,150.97999572753906,150.3800048828125,150.96499633789062,1297,0.0,0.0
2024-09-06 09:40:00-04:00,151.13999938964844,151.5050048828125,151.13999938964844,151.5050048828125,1076,0.0,0.0
2024-09-06 09:47:00-04:00,151.6199951171875,151.66000366210938,151.59500122070312,151.59500122070312,3365,0.0,0.0
2024-09-06 09:48:00-04:00,151.59500122070312,151.59500122070312,151.58749389648438,151.58749389648438,701,0.0,0.0
2024-09-06 09:53:00-04:00,151.5800018310547,151.5800018310547,151.5800018310547,151.5800018310547,549,0.0,0.0
2024-09-06 09:54:00-04:00,151.7550048828125,151.7550048828125,151.75,151.75,922,0.0,0.0
2024-09-06 09:57:00-04:00,151.5399932861328,151.5399932861328,151.5399932861328,151.5399932861328,494,0.0,0.0
2024-09-06 10:00:00-04:00,151.1999969482422,151.22500610351562,151.1999969482422,151.22500610351562,406,0.0,0.0
2024-09-06 10:02:00-04:00,151.22000122070312,151.22000122070312,151.22000122070312,151.22000122070312,199,0.0,0.0
2024-09-06 10:04:00-04:00,151.0500030517578,151.0500030517578,151.0500030517578,151.0500030517578,267,0.0,0.0
2024-09-06 10:05:00-04:00,150.8300018310547,150.8300018310547,150.8300018310547,150.8300018310547,593,0.0,0.0
2024-09-06 10:10:00-04:00,150.86000061035156,150.86000061035156,150.86000061035156,150.86000061035156,173,0.0,0.0
2024-09-06 10:12:00-04:00,151.02499389648438,151.02499389648438,151.02499389648438,151.02499389648438,385,0.0,0.0
2024-09-06 10:13:00-04:00,150.94000244140625,150.94000244140625,150.94000244140625,150.94000244140625,618,0.0,0.0
2024-09-06 10:16:00-04:00,150.58999633789062,150.58999633789062,150.58999633789062,150.58999633789062,469,0.0,0.0
2024-09-06 10:18:00-04:00,150.60000610351562,150.60000610351562,150.58999633789062,150.58999633789062,432,0.0,0.0
2024-09-06 10:19:00-04:00,150.69000244140625,150.75999450683594,150.69000244140625,150.75999450683594,2830,0.0,0.0
2024-09-06 10:21:00-04:00,150.9149932861328,150.9149932861328,150.9149932861328,150.9149932861328,937,0.0,0.0
2024-09-06 10:24:00-04:00,151.0500030517578,151.0500030517578,150.94000244140625,151.0500030517578,485,0.0,0.0
2024-09-06 10:25:00-04:00,151.0500030517578,151.0500030517578,150.8300018310547,150.8699951171875,709,0.0,0.0
2024-09-06 10:27:00-04:00,150.8699951171875,150.8699951171875,150.8699951171875,150.8699951171875,415,0.0,0.0
2024-09-06 10:32:00-04:00,150.6750030517578,150.6750030517578,150.6750030517578,150.6750030517578,173,0.0,0.0
2024-09-06 10:34:00-04:00,150.6118927001953,150.6118927001953,150.3800048828125,150.48500061035156,1186,0.0,0.0
2024-09-06 10:35:00-04:00,150.3800048828125,150.3800048828125,150.3800048828125,150.3800048828125,421,0.0,0.0
2024-09-06 10:39:00-04:00,150.4499969482422,150.5399932861328,150.4499969482422,150.5399932861328,698,0.0,0.0
2024-09-06 10:40:00-04:00,150.4600067138672,150.4600067138672,150.4600067138672,150.4600067138672,233,0.0,0.0
2024-09-06 10:41:00-04:00,150.66000366210938,150.74000549316406,150.58999633789062,150.74000549316406,1206,0.0,0.0
2024-09-06 10:47:00-04:00,150.72000122070312,150.72000122070312,150.72000122070312,150.72000122070312,127,0.0,0.0
2024-09-06 10:48:00-04:00,150.61000061035156,150.61000061035156,150.61000061035156,150.61000061035156,136,0.0,0.0
2024-09-06 10:49:00-04:00,150.61000061035156,150.61000061035156,150.61000061035156,150.61000061035156,214,0.0,0.0
2024-09-06 10:51:00-04:00,150.60499572753906,150.60499572753906,150.60499572753906,150.60499572753906,216,0.0,0.0
2024-09-06 10:53:00-04:00,150.50999450683594,150.5449981689453,150.50999450683594,150.5449981689453,1283,0.0,0.0
2024-09-06 10:54:00-04:00,150.63999938964844,151.0,150.63999938964844,151.0,4004,0.0,0.0
2024-09-06 10:57:00-04:00,151.0590057373047,151.0590057373047,150.97000122070312,151.0590057373047,2239,0.0,0.0
2024-09-06 11:00:00-04:00,151.1999969482422,151.34500122070312,151.1999969482422,151.34500122070312,1298,0.0,0.0
2024-09-06 11:01:00-04:00,151.7899932861328,151.7899932861328,151.7899932861328,151.7899932861328,201,0.0,0.0
2024-09-06 11:02:00-04:00,151.64500427246094,151.64500427246094,151.50999450683594,151.52499389648438,494,0.0,0.0
2024-09-06 11:03:00-04:00,151.63999938964844,151.63999938964844,151.63999938964844,151.63999938964844,108,0.0,0.0
2024-09-06 11:04:00-04:00,151.77000427246094,151.77000427246094,151.77000427246094,151.77000427246094,311,0.0,0.0
2024-09-06 11:05:00-04:00,151.77000427246094,151.77000427246094,151.77000427246094,151.77000427246094,158,0.0,0.0
2024-09-06 11:06:00-04:00,151.75999450683594,151.75999450683594,151.75999450683594,151.75999450683594,223,0.0,0.0
2024-09-06 11:07:00-04:00,151.50999450683594,151.50999450683594,151.49000549316406,151.49000549316406,2084,0.0,0.0
2024-09-06 11:08:00-04:00,151.3800048828125,151.4600067138672,151.3699951171875,151.4149932861328,1800,0.0,0.0
2024-09-06 11:11:00-04:00,151.27999877929688,151.27999877929688,151.27999877929688,151.27999877929688,578,0.0,0.0
2024-09-06 11:12:00-04:00,151.2899932861328,151.2899932861328,151.17999267578125,151.17999267578125,1260,0.0,0.0
2024-09-06 11:13:00-04:00,151.1699981689453,151.1699981689453,151.11000061035156,151.11000061035156,721,0.0,0.0
2024-09-06 11:15:00-04:00,151.11000061035156,151.11000061035156,151.09500122070312,151.09500122070312,680,0.0,0.0
2024-09-06 11:19:00-04:00,151.08999633789062,151.08999633789062,151.0800018310547,151.08999633789062,1472,0.0,0.0
2024-09-06 11:20:00-04:00,151.2100067138672,151.4199981689453,151.1300048828125,151.4199981689453,1603,0.0,0.0
2024-09-06 11:21:00-04:00,151.4499969482422,151.4499969482422,151.4499969482422,151.4499969482422,206,0.0,0.0
2024-09-06 11:22:00-04:00,151.4199981689453,151.4199981689453,151.4199981689453,151.4199981689453,1058,0.0,0.0
2024-09-06 11:23:00-04:00,151.52999877929688,151.69500732421875,151.52999877929688,151.66000366210938,1626,0.0,0.0
2024-09-06 11:24:00-04:00,151.70899963378906,151.70899963378906,151.4600067138672,151.53500366210938,2469,0.0,0.0
2024-09-06 11:25:00-04:00,151.64500427246094,151.6999969482422,151.64500427246094,151.6999969482422,898,0.0,0.0
2024-09-06 11:26:00-04:00,151.6300048828125,151.6999969482422,151.6300048828125,151.69000244140625,850,0.0,0.0
2024-09-06 11:27:00-04:00,151.67999267578125,151.7100067138672,151.67999267578125,151.7100067138672,625,0.0,0.0
2024-09-06 11:28:00-04:00,151.6300048828125,151.6300048828125,151.625,151.625,204,0.0,0.0
2024-09-06 11:29:00-04:00,151.69000244140625,151.6999969482422,151.69000244140625,151.6999969482422,411,0.0,0.0
2024-09-06 11:30:00-04:00,151.69000244140625,151.7899932861328,151.69000244140625,151.7899932861328,1624,0.0,0.0
2024-09-06 11:31:00-04:00,151.85499572753906,151.88999938964844,151.85499572753906,151.88999938964844,425,0.0,0.0
2024-09-06 11:32:00-04:00,151.6699981689453,151.94000244140625,151.6699981689453,151.94000244140625,3900,0.0,0.0
2024-09-06 11:34:00-04:00,152.10000610351562,152.10000610351562,152.10000610351562,152.10000610351562,577,0.0,0.0
2024-09-06 11:36:00-04:00,152.2100067138672,152.2100067138672,152.2100067138672,152.2100067138672,606,0.0,0.0
2024-09-06 11:38:00-04:00,152.1199951171875,152.49000549316406,152.1199951171875,152.3699951171875,9990,0.0,0.0
2024-09-06 11:39:00-04:00,152.36000061035156,152.36000061035156,152.11500549316406,152.11500549316406,6251,0.0,0.0
2024-09-06 11:41:00-04:00,152.1199951171875,152.1199951171875,152.1199951171875,152.1199951171875,1032,0.0,0.0
2024-09-06 11:42:00-04:00,152.24000549316406,152.24000549316406,152.24000549316406,152.24000549316406,388,0.0,0.0
2024-09-06 11:43:00-04:00,152.2949981689453,152.2949981689453,152.2949981689453,152.2949981689453,285,0.0,0.0
2024-09-06 11:44:00-04:00,152.33900451660156,152.33900451660156,152.3000030517578,152.3000030517578,1588,0.0,0.0
2024-09-06 11:50:00-04:00,152.0500030517578,152.13999938964844,152.0500030517578,152.05999755859375,829,0.0,0.0
2024-09-06 11:51:00-04:00,152.1300048828125,152.1300048828125,152.1300048828125,152.1300048828125,426,0.0,0.0
2024-09-06 11:52:00-04:00,152.22000122070312,152.22000122070312,152.22000122070312,152.22000122070312,1002,0.0,0.0
2024-09-06 11:56:00-04:00,152.24000549316406,152.24000549316406,152.24000549316406,152.24000549316406,392,0.0,0.0
2024-09-06 11:57:00-04:00,152.24000549316406,152.24000549316406,152.24000549316406,152.24000549316406,1393,0.0,0.0
2024-09-06 11:58:00-04:00,152.13999938964844,152.13999938964844,152.13999938964844,152.13999938964844,710,0.0,0.0
2024-09-06 12:01:00-04:00,152.2570037841797,152.2570037841797,152.2570037841797,152.2570037841797,771,0.0,0.0
2024-09-06 12:03:00-04:00,152.30999755859375,152.30999755859375,152.11500549316406,152.11500549316406,2415,0.0,0.0
2024-09-06 12:05:00-04:00,152.22999572753906,152.28599548339844,152.22999572753906,152.28599548339844,225,0.0,0.0
2024-09-06 12:06:00-04:00,152.2899932861328,152.3000030517578,152.2899932861328,152.3000030517578,363,0.0,0.0
2024-09-06 12:07:00-04:00,152.25,152.25,152.25,152.25,273,0.0,0.0
2024-09-06 12:08:00-04:00,152.25,152.3300018310547,152.1999969482422,152.1999969482422,1075,0.0,0.0
2024-09-06 12:09:00-04:00,152.25999450683594,152.25999450683594,152.1699981689453,152.19500732421875,723,0.0,0.0
2024-09-06 12:12:00-04:00,152.19000244140625,152.23500061035156,152.19000244140625,152.23500061035156,565,0.0,0.0
2024-09-06 12:13:00-04:00,152.27999877929688,152.3000030517578,152.27999877929688,152.3000030517578,776,0.0,0.0
2024-09-06 12:14:00-04:00,152.19000244140625,152.19000244140625,152.17999267578125,152.17999267578125,727,0.0,0.0
2024-09-06 12:15:00-04:00,152.23500061035156,152.23500061035156,152.23500061035156,152.23500061035156,289,0.0,0.0
2024-09-06 12:17:00-04:00,152.3300018310547,152.3300018310547,152.3300018310547,152.3300018310547,202,0.0,0.0
2024-09-06 12:18:00-04:00,152.3000030517578,152.3000030517578,152.3000030517578,152.3000030517578,640,0.0,0.0
2024-09-06 12:20:00-04:00,152.28700256347656,152.28700256347656,152.28700256347656,152.28700256347656,242,0.0,0.0
2024-09-06 12:23:00-04:00,152.27999877929688,152.27999877929688,152.22000122070312,152.2449951171875,3012,0.0,0.0
2024-09-06 12:25:00-04:00,152.3300018310547,152.3800048828125,152.3300018310547,152.3800048828125,757,0.0,0.0
2024-09-06 12:27:00-04:00,152.34500122070312,152.34500122070312,152.33999633789062,152.33999633789062,1055,0.0,0.0
2024-09-06 12:28:00-04:00,152.3000030517578,152.33749389648438,152.3000030517578,152.33749389648438,962,0.0,0.0
2024-09-06 12:29:00-04:00,152.27000427246094,152.3000030517578,152.27000427246094,152.3000030517578,1208,0.0,0.0
2024-09-06 12:33:00-04:00,152.33099365234375,152.33099365234375,152.33099365234375,152.33099365234375,970,0.0,0.0
2024-09-06 12:35:00-04:00,152.4149932861328,152.4149932861328,152.39999389648438,152.39999389648438,260,0.0,0.0
2024-09-06 12:37:00-04:00,152.3800048828125,152.39999389648438,152.3699951171875,152.39999389648438,1328,0.0,0.0
2024-09-06 12:39:00-04:00,152.4250030517578,152.4250030517578,152.4250030517578,152.4250030517578,178,0.0,0.0
2024-09-06 12:40:00-04:00,152.468994140625,152.468994140625,152.3300018310547,152.3300018310547,2216,0.0,0.0
2024-09-06 12:49:00-04:00,152.36000061035156,152.36000061035156,152.36000061035156,152.36000061035156,450,0.0,0.0
2024-09-06 12:50:00-04:00,152.25999450683594,152.25999450683594,152.25,152.25,771,0.0,0.0
2024-09-06 12:52:00-04:00,152.2100067138672,152.21499633789062,152.17999267578125,152.17999267578125,1340,0.0,0.0
2024-09-06 12:55:00-04:00,152.25,152.25,152.25,152.25,709,0.0,0.0
2024-09-06 12:57:00-04:00,152.2899932861328,152.35299682617188,152.2899932861328,152.35000610351562,687,0.0,0.0
2024-09-06 12:58:00-04:00,152.32000732421875,152.32000732421875,152.3000030517578,152.32000732421875,1099,0.0,0.0
2024-09-06 12:59:00-04:00,152.32000732421875,152.34500122070312,152.30999755859375,152.34500122070312,875,0.0,0.0
2024-09-06 13:01:00-04:00,152.3000030517578,152.30999755859375,152.24000549316406,152.24000549316406,1472,0.0,0.0
2024-09-06 13:06:00-04:00,152.2050018310547,152.2050018310547,152.2050018310547,152.2050018310547,838,0.0,0.0
2024-09-06 13:10:00-04:00,152.25999450683594,152.25999450683594,152.25999450683594,152.25999450683594,152,0.0,0.0
2024-09-06 13:11:00-04:00,152.2899932861328,152.2899932861328,152.21499633789062,152.26800537109375,896,0.0,0.0
2024-09-06 13:16:00-04:00,152.25,152.25,152.13999938964844,152.13999938964844,1814,0.0,0.0
2024-09-06 13:19:00-04:00,152.13499450683594,152.13499450683594,152.13499450683594,152.13499450683594,193,0.0,0.0
2024-09-06 13:20:00-04:00,152.12969970703125,152.12969970703125,152.12969970703125,152.12969970703125,198,0.0,0.0
2024-09-06 13:21:00-04:00,152.17999267578125,152.17999267578125,152.17999267578125,152.17999267578125,335,0.0,0.0
2024-09-06 13:22:00-04:00,152.22000122070312,152.22000122070312,152.22000122070312,152.22000122070312,459,0.0,0.0
2024-09-06 13:23:00-04:00,152.22999572753906,152.32000732421875,152.22999572753906,152.32000732421875,666,0.0,0.0
2024-09-06 13:25:00-04:00,152.36500549316406,152.3769989013672,152.30999755859375,152.3769989013672,1350,0.0,0.0
2024-09-06 13:27:00-04:00,152.25999450683594,152.28500366210938,152.25999450683594,152.26499938964844,1509,0.0,0.0
2024-09-06 13:28:00-04:00,152.25999450683594,152.25999450683594,152.25999450683594,152.25999450683594,325,0.0,0.0
2024-09-06 13:30:00-04:00,152.3498992919922,152.3498992919922,152.3498992919922,152.3498992919922,736,0.0,0.0
2024-09-06 13:35:00-04:00,152.22000122070312,152.22000122070312,152.2100067138672,152.2100067138672,418,0.0,0.0
2024-09-06 13:37:00-04:00,152.21499633789062,152.21499633789062,152.21499633789062,152.21499633789062,466,0.0,0.0
2024-09-06 13:43:00-04:00,152.25999450683594,152.3249969482422,152.22999572753906,152.3249969482422,2451,0.0,0.0
2024-09-06 13:47:00-04:00,152.32000732421875,152.32000732421875,152.2899932861328,152.2899932861328,805,0.0,0.0
2024-09-06 13:49:00-04:00,152.25999450683594,152.25999450683594,152.25999450683594,152.25999450683594,535,0.0,0.0
2024-09-06 13:54:00-04:00,152.2949981689453,152.2949981689453,152.2949981689453,152.2949981689453,158,0.0,0.0
2024-09-06 13:55:00-04:00,152.33999633789062,152.39999389648438,152.33900451660156,152.39999389648438,1000,0.0,0.0
2024-09-06 13:56:00-04:00,152.3800048828125,152.3800048828125,152.3800048828125,152.3800048828125,239,0.0,0.0
2024-09-06 13:57:00-04:00,152.3699951171875,152.3699951171875,152.3699951171875,152.3699951171875,278,0.0,0.0
2024-09-06 14:01:00-04:00,152.39999389648438,152.41000366210938,152.26499938964844,152.26499938964844,2245,0.0,0.0
2024-09-06 14:03:00-04:00,152.35000610351562,152.35000610351562,152.35000610351562,152.35000610351562,300,0.0,0.0
2024-09-06 14:04:00-04:00,152.3040008544922,152.3300018310547,152.3000030517578,152.3300018310547,1235,0.0,0.0
2024-09-06 14:10:00-04:00,152.22000122070312,152.22000122070312,152.22000122070312,152.22000122070312,230,0.0,0.0
2024-09-06 14:11:00-04:00,152.22000122070312,152.30999755859375,152.22000122070312,152.30999755859375,799,0.0,0.0
2024-09-06 14:13:00-04:00,152.2100067138672,152.22000122070312,152.1300048828125,152.1300048828125,1635,0.0,0.0
2024-09-06 14:14:00-04:00,152.2100067138672,152.2100067138672,152.2100067138672,152.2100067138672,300,0.0,0.0
2024-09-06 14:15:00-04:00,152.1699981689453,152.1699981689453,152.1699981689453,152.1699981689453,410,0.0,0.0
2024-09-06 14:17:00-04:00,152.1699981689453,152.1699981689453,152.1699981689453,152.1699981689453,619,0.0,0.0
2024-09-06 14:18:00-04:00,152.1199951171875,152.1199951171875,152.0800018310547,152.0800018310547,774,0.0,0.0
2024-09-06 14:20:00-04:00,152.07989501953125,152.07989501953125,152.07989501953125,152.07989501953125,657,0.0,0.0
2024-09-06 14:22:00-04:00,151.97000122070312,152.0500030517578,151.97000122070312,152.0500030517578,434,0.0,0.0
2024-09-06 14:23:00-04:00,151.9949951171875,151.9949951171875,151.97999572753906,151.97999572753906,645,0.0,0.0
2024-09-06 14:26:00-04:00,151.89999389648438,151.97000122070312,151.89999389648438,151.97000122070312,864,0.0,0.0
2024-09-06 14:29:00-04:00,151.90499877929688,151.90499877929688,151.84500122070312,151.84500122070312,430,0.0,0.0
2024-09-06 14:32:00-04:00,151.83999633789062,151.83999633789062,151.83999633789062,151.83999633789062,224,0.0,0.0
2024-09-06 14:33:00-04:00,151.83999633789062,151.83999633789062,151.83999633789062,151.83999633789062,1336,0.0,0.0
2024-09-06 14:37:00-04:00,151.7100067138672,151.7100067138672,151.7100067138672,151.7100067138672,460,0.0,0.0
2024-09-06 14:39:00-04:00,151.7100067138672,151.8300018310547,151.7100067138672,151.8300018310547,3327,0.0,0.0
2024-09-06 14:41:00-04:00,151.8800048828125,151.89500427246094,151.8800048828125,151.89500427246094,483,0.0,0.0
2024-09-06 14:42:00-04:00,151.88999938964844,151.88999938964844,151.88999938964844,151.88999938964844,550,0.0,0.0
2024-09-06 14:44:00-04:00,151.9199981689453,152.02499389648438,151.9199981689453,152.02499389648438,1264,0.0,0.0
2024-09-06 14:45:00-04:00,151.89999389648438,151.96499633789062,151.89999389648438,151.9199981689453,1336,0.0,0.0
2024-09-06 14:46:00-04:00,152.02000427246094,152.02000427246094,152.02000427246094,152.02000427246094,274,0.0,0.0
2024-09-06 14:47:00-04:00,152.0500030517578,152.05999755859375,152.02000427246094,152.05999755859375,1716,0.0,0.0
2024-09-06 14:48:00-04:00,152.0800018310547,152.0800018310547,152.0800018310547,152.0800018310547,161,0.0,0.0
2024-09-06 14:49:00-04:00,152.0989990234375,152.0989990234375,152.0989990234375,152.0989990234375,300,0.0,0.0
2024-09-06 14:50:00-04:00,152.0500030517578,152.0500030517578,152.00999450683594,152.00999450683594,1291,0.0,0.0
2024-09-06 14:51:00-04:00,152.0,152.02999877929688,152.0,152.02999877929688,1001,0.0,0.0
2024-09-06 14:52:00-04:00,152.05499267578125,152.05499267578125,152.02999877929688,152.02999877929688,1616,0.0,0.0
2024-09-06 14:53:00-04:00,152.02999877929688,152.02999877929688,152.0,152.0,1114,0.0,0.0
2024-09-06 14:55:00-04:00,151.97500610351562,151.97500610351562,151.97500610351562,151.97500610351562,345,0.0,0.0
2024-09-06 14:58:00-04:00,152.01499938964844,152.0399932861328,152.01499938964844,152.0399932861328,1231,0.0,0.0
2024-09-06 15:00:00-04:00,152.05999755859375,152.10000610351562,152.0399932861328,152.10000610351562,1120,0.0,0.0
2024-09-06 15:01:00-04:00,152.1300048828125,152.16000366210938,152.11000061035156,152.11000061035156,515,0.0,0.0
2024-09-06 15:02:00-04:00,152.08999633789062,152.19000244140625,152.08999633789062,152.19000244140625,967,0.0,0.0
2024-09-06 15:03:00-04:00,152.24000549316406,152.25,152.24000549316406,152.25,643,0.0,0.0
2024-09-06 15:04:00-04:00,152.2899932861328,152.3489990234375,152.2899932861328,152.3489990234375,652,0.0,0.0
2024-09-06 15:05:00-04:00,152.40899658203125,152.40899658203125,152.40899658203125,152.40899658203125,138,0.0,0.0
2024-09-06 15:06:00-04:00,152.42999267578125,152.42999267578125,152.39999389648438,152.42999267578125,694,0.0,0.0
2024-09-06 15:07:00-04:00,152.39999389648438,152.625,152.3699951171875,152.5850067138672,10725,0.0,0.0
2024-09-06 15:08:00-04:00,152.64999389648438,152.72900390625,152.64999389648438,152.72900390625,1490,0.0,0.0
2024-09-06 15:09:00-04:00,152.69000244140625,152.718994140625,152.6199951171875,152.7100067138672,7054,0.0,0.0
2024-09-06 15:10:00-04:00,152.72500610351562,152.72500610351562,152.72500610351562,152.72500610351562,316,0.0,0.0
2024-09-06 15:12:00-04:00,152.76499938964844,152.85699462890625,152.76499938964844,152.85699462890625,1903,0.0,0.0
2024-09-06 15:13:00-04:00,152.77000427246094,152.8300018310547,152.75999450683594,152.7899932861328,9509,0.0,0.0
2024-09-06 15:15:00-04:00,152.77499389648438,152.8000030517578,152.77499389648438,152.8000030517578,492,0.0,0.0
2024-09-06 15:16:00-04:00,152.72999572753906,152.72999572753906,152.72999572753906,152.72999572753906,241,0.0,0.0
2024-09-06 15:17:00-04:00,152.8000030517578,152.8000030517578,152.75,152.8000030517578,945,0.0,0.0
2024-09-06 15:18:00-04:00,152.75,152.75,152.72999572753906,152.72999572753906,332,0.0,0.0
2024-09-06 15:19:00-04:00,152.8000030517578,152.81900024414062,152.74000549316406,152.81900024414062,952,0.0,0.0
2024-09-06 15:20:00-04:00,152.77000427246094,152.88999938964844,152.72999572753906,152.88999938964844,3040,0.0,0.0
2024-09-06 15:21:00-04:00,152.83799743652344,152.83799743652344,152.8350067138672,152.8350067138672,1031,0.0,0.0
2024-09-06 15:22:00-04:00,152.89999389648438,152.9199981689453,152.8699951171875,152.8699951171875,603,0.0,0.0
2024-09-06 15:24:00-04:00,152.88999938964844,153.00999450683594,152.88999938964844,153.00999450683594,1332,0.0,0.0
2024-09-06 15:26:00-04:00,153.03250122070312,153.05999755859375,153.03250122070312,153.05999755859375,242,0.0,0.0
2024-09-06 15:27:00-04:00,153.05999755859375,153.05999755859375,153.05999755859375,153.05999755859375,255,0.0,0.0
2024-09-06 15:28:00-04:00,153.05999755859375,153.10000610351562,153.05999755859375,153.08999633789062,1124,0.0,0.0
2024-09-06 15:29:00-04:00,153.08999633789062,153.12100219726562,153.02999877929688,153.04299926757812,4531,0.0,0.0
2024-09-06 15:30:00-04:00,152.99000549316406,153.01499938964844,152.97999572753906,152.97999572753906,1469,0.0,0.0
2024-09-06 15:31:00-04:00,152.94500732421875,152.99000549316406,152.94500732421875,152.9499969482422,1333,0.0,0.0
2024-09-06 15:32:00-04:00,152.97500610351562,153.0,152.97000122070312,153.0,1312,0.0,0.0
2024-09-06 15:33:00-04:00,152.97999572753906,152.97999572753906,152.89500427246094,152.89500427246094,3181,0.0,0.0
2024-09-06 15:34:00-04:00,152.8300018310547,152.85499572753906,152.7949981689453,152.8385009765625,2322,0.0,0.0
2024-09-06 15:35:00-04:00,152.81500244140625,152.81500244140625,152.6699981689453,152.67999267578125,1723,0.0,0.0
2024-09-06 15:36:00-04:00,152.64999389648438,152.74899291992188,152.64999389648438,152.74899291992188,1268,0.0,0.0
2024-09-06 15:37:00-04:00,152.72000122070312,152.72000122070312,152.72000122070312,152.72000122070312,353,0.0,0.0
2024-09-06 15:38:00-04:00,152.69000244140625,152.72999572753906,152.69000244140625,152.7100067138672,1531,0.0,0.0
2024-09-06 15:39:00-04:00,152.69000244140625,152.72000122070312,152.67999267578125,152.6999969482422,4351,0.0,0.0
2024-09-06 15:40:00-04:00,152.7169952392578,152.7169952392578,152.6699981689453,152.67250061035156,2116,0.0,0.0
2024-09-06 15:41:00-04:00,152.67999267578125,152.67999267578125,152.6199951171875,152.64999389648438,1430,0.0,0.0
2024-09-06 15:42:00-04:00,152.67999267578125,152.67999267578125,152.64500427246094,152.64500427246094,526,0.0,0.0
2024-09-06 15:43:00-04:00,152.6699981689453,152.7899932861328,152.6699981689453,152.7899932861328,1952,0.0,0.0
2024-09-06 15:44:00-04:00,152.7949981689453,152.8000030517578,152.75999450683594,152.8000030517578,2473,0.0,0.0
2024-09-06 15:45:00-04:00,152.8000030517578,152.8000030517578,152.6999969482422,152.72999572753906,1660,0.0,0.0
2024-09-06 15:46:00-04:00,152.67999267578125,152.7050018310547,152.67999267578125,152.7050018310547,838,0.0,0.0
2024-09-06 15:47:00-04:00,152.72999572753906,152.81500244140625,152.72999572753906,152.77999877929688,2188,0.0,0.0
2024-09-06 15:48:00-04:00,152.80999755859375,152.80999755859375,152.80999755859375,152.80999755859375,476,0.0,0.0
2024-09-06 15:49:00-04:00,152.82000732421875,152.8699951171875,152.82000732421875,152.8699951171875,1557,0.0,0.0
2024-09-06 15:50:00-04:00,152.97000122070312,152.97000122070312,152.8000030517578,152.83999633789062,4704,0.0,0.0
2024-09-06 15:51:00-04:00,152.8000030517578,152.8000030517578,152.72999572753906,152.72999572753906,1008,0.0,0.0
2024-09-06 15:52:00-04:00,152.67999267578125,152.67999267578125,152.6699981689453,152.6699981689453,1265,0.0,0.0
2024-09-06 15:53:00-04:00,152.69000244140625,152.69000244140625,152.57000732421875,152.57000732421875,1992,0.0,0.0
2024-09-06 15:54:00-04:00,152.5749969482422,152.63999938964844,152.53500366210938,152.63999938964844,4750,0.0,0.0
2024-09-06 15:55:00-04:00,152.6199951171875,152.6199951171875,152.47000122070312,152.47000122070312,2564,0.0,0.0
2024-09-06 15:56:00-04:00,152.47999572753906,152.5,152.3800048828125,152.3800048828125,2552,0.0,0.0
2024-09-06 15:57:00-04:00,152.4199981689453,152.44000244140625,152.39999389648438,152.39999389648438,6441,0.0,0.0
2024-09-06 15:58:00-04:00,152.41000366210938,152.4600067138672,152.30499267578125,152.4600067138672,8842,0.0,0.0
2024-09-06 15:59:00-04:00,152.47999572753906,152.47999572753906,152.42999267578125,152.4600067138672,6689,0.0,0.0
