Datetime,Open,High,Low,Close,Volume,Dividends,Stock Splits
2024-07-15 09:30:00-04:00,144.75999450683594,144.75999450683594,144.75999450683594,144.75999450683594,0,0.0,0.0
2024-07-15 09:42:00-04:00,144.57240295410156,144.57240295410156,144.35499572753906,144.35499572753906,1277,0.0,0.0
2024-07-15 09:47:00-04:00,144.35000610351562,144.35000610351562,144.35000610351562,144.35000610351562,249,0.0,0.0
2024-07-15 09:48:00-04:00,144.44000244140625,144.69000244140625,144.44000244140625,144.69000244140625,2394,0.0,0.0
2024-07-15 09:51:00-04:00,144.5507049560547,144.5507049560547,144.5507049560547,144.5507049560547,586,0.0,0.0
2024-07-15 09:53:00-04:00,145.1999969482422,145.2050018310547,145.1999969482422,145.2050018310547,392,0.0,0.0
2024-07-15 09:55:00-04:00,145.2050018310547,145.2050018310547,145.2050018310547,145.2050018310547,263,0.0,0.0
2024-07-15 09:56:00-04:00,145.08999633789062,145.1649932861328,145.08999633789062,145.1649932861328,689,0.0,0.0
2024-07-15 09:58:00-04:00,145.32000732421875,145.32000732421875,145.31370544433594,145.3137969970703,1397,0.0,0.0
2024-07-15 10:00:00-04:00,145.47500610351562,145.47500610351562,145.47500610351562,145.47500610351562,175,0.0,0.0
2024-07-15 10:01:00-04:00,145.5800018310547,145.5800018310547,145.5800018310547,145.5800018310547,250,0.0,0.0
2024-07-15 10:04:00-04:00,145.44000244140625,145.44000244140625,145.44000244140625,145.44000244140625,501,0.0,0.0
2024-07-15 10:05:00-04:00,145.3300018310547,145.42999267578125,145.30499267578125,145.30499267578125,370,0.0,0.0
2024-07-15 10:09:00-04:00,145.35499572753906,145.35499572753906,145.35499572753906,145.35499572753906,572,0.0,0.0
2024-07-15 10:16:00-04:00,145.5399932861328,145.5399932861328,145.5399932861328,145.5399932861328,705,0.0,0.0
2024-07-15 10:26:00-04:00,145.57000732421875,145.5749969482422,145.47000122070312,145.5749969482422,632,0.0,0.0
2024-07-15 10:27:00-04:00,145.5800018310547,145.5800018310547,145.5800018310547,145.5800018310547,220,0.0,0.0
2024-07-15 10:28:00-04:00,145.69000244140625,145.69000244140625,145.69000244140625,145.69000244140625,401,0.0,0.0
2024-07-15 10:30:00-04:00,145.5850067138672,145.5850067138672,145.5850067138672,145.5850067138672,543,0.0,0.0
2024-07-15 10:34:00-04:00,145.5500030517578,145.57000732421875,145.4600067138672,145.4600067138672,735,0.0,0.0
2024-07-15 10:35:00-04:00,145.4600067138672,145.4600067138672,145.19000244140625,145.19000244140625,966,0.0,0.0
2024-07-15 10:41:00-04:00,145.17999267578125,145.22500610351562,145.17999267578125,145.22500610351562,1159,0.0,0.0
2024-07-15 10:49:00-04:00,145.0500030517578,145.1999969482422,145.0500030517578,145.1999969482422,590,0.0,0.0
2024-07-15 10:50:00-04:00,145.07000732421875,145.19500732421875,145.07000732421875,145.19500732421875,722,0.0,0.0
2024-07-15 10:51:00-04:00,145.0399932861328,145.0399932861328,144.7100067138672,144.88499450683594,3607,0.0,0.0
2024-07-15 10:52:00-04:00,144.72000122070312,144.80999755859375,144.60000610351562,144.72000122070312,3829,0.0,0.0
2024-07-15 10:54:00-04:00,144.77000427246094,144.94000244140625,144.77000427246094,144.81500244140625,2369,0.0,0.0
2024-07-15 10:55:00-04:00,144.8300018310547,144.8350067138672,144.82000732421875,144.82000732421875,550,0.0,0.0
2024-07-15 10:56:00-04:00,144.72000122070312,144.72000122070312,144.58999633789062,144.58999633789062,932,0.0,0.0
2024-07-15 10:58:00-04:00,144.6300048828125,144.6699981689453,144.5500030517578,144.5500030517578,1314,0.0,0.0
2024-07-15 11:00:00-04:00,144.5500030517578,144.64999389648438,144.5500030517578,144.64999389648438,1655,0.0,0.0
2024-07-15 11:01:00-04:00,144.9199981689453,144.9199981689453,144.9199981689453,144.9199981689453,985,0.0,0.0
2024-07-15 11:06:00-04:00,144.88499450683594,144.88499450683594,144.85000610351562,144.85000610351562,1901,0.0,0.0
2024-07-15 11:07:00-04:00,144.8000030517578,144.8000030517578,144.7899932861328,144.7899932861328,866,0.0,0.0
2024-07-15 11:11:00-04:00,144.77999877929688,144.77999877929688,144.75999450683594,144.75999450683594,928,0.0,0.0
2024-07-15 11:12:00-04:00,144.91000366210938,144.9199981689453,144.77999877929688,144.77999877929688,2313,0.0,0.0
2024-07-15 11:15:00-04:00,144.97999572753906,144.97999572753906,144.97999572753906,144.97999572753906,2097,0.0,0.0
2024-07-15 11:16:00-04:00,144.92999267578125,145.17999267578125,144.92999267578125,145.17999267578125,2926,0.0,0.0
2024-07-15 11:17:00-04:00,145.00999450683594,145.00999450683594,144.8300018310547,144.89999389648438,1793,0.0,0.0
2024-07-15 11:20:00-04:00,144.8300018310547,144.83999633789062,144.8300018310547,144.83999633789062,495,0.0,0.0
2024-07-15 11:23:00-04:00,144.8300018310547,144.8300018310547,144.8300018310547,144.8300018310547,1420,0.0,0.0
2024-07-15 11:27:00-04:00,144.8300018310547,144.8300018310547,144.8300018310547,144.8300018310547,644,0.0,0.0
2024-07-15 11:31:00-04:00,144.64999389648438,144.64999389648438,144.64999389648438,144.64999389648438,400,0.0,0.0
2024-07-15 11:33:00-04:00,144.61500549316406,144.66000366210938,144.61000061035156,144.61000061035156,2711,0.0,0.0
2024-07-15 11:37:00-04:00,144.7216033935547,144.80999755859375,144.7216033935547,144.80999755859375,690,0.0,0.0
2024-07-15 11:38:00-04:00,144.76499938964844,144.76499938964844,144.76499938964844,144.76499938964844,287,0.0,0.0
2024-07-15 11:39:00-04:00,144.83999633789062,144.85000610351562,144.80999755859375,144.8249969482422,958,0.0,0.0
2024-07-15 11:40:00-04:00,144.7899932861328,144.7899932861328,144.7899932861328,144.7899932861328,680,0.0,0.0
2024-07-15 11:42:00-04:00,144.84500122070312,144.89999389648438,144.8300018310547,144.89999389648438,1368,0.0,0.0
2024-07-15 11:44:00-04:00,144.7899932861328,144.7899932861328,144.74000549316406,144.74000549316406,370,0.0,0.0
2024-07-15 11:45:00-04:00,144.63499450683594,144.63499450683594,144.63499450683594,144.63499450683594,596,0.0,0.0
2024-07-15 11:46:00-04:00,144.80999755859375,144.94000244140625,144.77999877929688,144.77999877929688,1668,0.0,0.0
2024-07-15 11:47:00-04:00,144.9600067138672,144.9600067138672,144.82000732421875,144.89999389648438,794,0.0,0.0
2024-07-15 11:48:00-04:00,144.97120666503906,144.97120666503906,144.82000732421875,144.82000732421875,467,0.0,0.0
2024-07-15 11:49:00-04:00,144.8350067138672,144.89999389648438,144.82000732421875,144.82000732421875,932,0.0,0.0
2024-07-15 11:50:00-04:00,144.86500549316406,144.86500549316406,144.8300018310547,144.8300018310547,470,0.0,0.0
2024-07-15 11:51:00-04:00,144.85000610351562,144.85000610351562,144.85000610351562,144.85000610351562,673,0.0,0.0
2024-07-15 11:53:00-04:00,144.97999572753906,144.9949951171875,144.85000610351562,144.97000122070312,2247,0.0,0.0
2024-07-15 11:55:00-04:00,144.8699951171875,144.8975067138672,144.84500122070312,144.8975067138672,751,0.0,0.0
2024-07-15 11:56:00-04:00,144.86000061035156,144.86000061035156,144.85499572753906,144.85499572753906,460,0.0,0.0
2024-07-15 11:58:00-04:00,145.07000732421875,145.07000732421875,145.0478973388672,145.04800415039062,1597,0.0,0.0
2024-07-15 11:59:00-04:00,144.96499633789062,144.96499633789062,144.96499633789062,144.96499633789062,785,0.0,0.0
2024-07-15 12:05:00-04:00,144.8800048828125,144.8800048828125,144.85000610351562,144.85000610351562,570,0.0,0.0
2024-07-15 12:06:00-04:00,144.8699951171875,144.8699951171875,144.8699951171875,144.8699951171875,950,0.0,0.0
2024-07-15 12:09:00-04:00,144.7949981689453,144.8300018310547,144.7949981689453,144.7949981689453,823,0.0,0.0
2024-07-15 12:10:00-04:00,144.81100463867188,144.82000732421875,144.75999450683594,144.75999450683594,2716,0.0,0.0
2024-07-15 12:11:00-04:00,144.8699951171875,144.8699951171875,144.8699951171875,144.8699951171875,227,0.0,0.0
2024-07-15 12:14:00-04:00,144.9600067138672,144.9600067138672,144.8800048828125,144.8800048828125,993,0.0,0.0
2024-07-15 12:16:00-04:00,144.85000610351562,144.85000610351562,144.7899932861328,144.7899932861328,954,0.0,0.0
2024-07-15 12:17:00-04:00,144.85000610351562,144.89999389648438,144.85000610351562,144.8800048828125,2789,0.0,0.0
2024-07-15 12:18:00-04:00,144.8800048828125,145.06500244140625,144.8800048828125,145.0500030517578,7673,0.0,0.0
2024-07-15 12:20:00-04:00,145.0,145.0399932861328,145.0,145.00999450683594,1817,0.0,0.0
2024-07-15 12:21:00-04:00,145.0,145.0,145.0,145.0,809,0.0,0.0
2024-07-15 12:22:00-04:00,144.9949951171875,145.05999755859375,144.99000549316406,145.0500030517578,2248,0.0,0.0
2024-07-15 12:23:00-04:00,145.0,145.0800018310547,145.0,145.0800018310547,4517,0.0,0.0
2024-07-15 12:24:00-04:00,145.11000061035156,145.1699981689453,145.11000061035156,145.1300048828125,2671,0.0,0.0
2024-07-15 12:25:00-04:00,145.1300048828125,145.1300048828125,145.02999877929688,145.0449981689453,4071,0.0,0.0
2024-07-15 12:26:00-04:00,145.0500030517578,145.10000610351562,145.0399932861328,145.10000610351562,2051,0.0,0.0
2024-07-15 12:27:00-04:00,145.1291961669922,145.13999938964844,145.10000610351562,145.10000610351562,5739,0.0,0.0
2024-07-15 12:28:00-04:00,145.14999389648438,145.16000366210938,145.12750244140625,145.12750244140625,3275,0.0,0.0
2024-07-15 12:31:00-04:00,145.09500122070312,145.09500122070312,145.09500122070312,145.09500122070312,587,0.0,0.0
2024-07-15 12:32:00-04:00,145.14999389648438,145.14999389648438,145.02000427246094,145.0800018310547,1788,0.0,0.0
2024-07-15 12:34:00-04:00,145.1199951171875,145.1699981689453,145.1199951171875,145.1699981689453,3966,0.0,0.0
2024-07-15 12:35:00-04:00,145.2100067138672,145.2100067138672,145.13999938964844,145.14500427246094,3181,0.0,0.0
2024-07-15 12:36:00-04:00,145.10000610351562,145.19000244140625,145.10000610351562,145.19000244140625,1658,0.0,0.0
2024-07-15 12:37:00-04:00,145.17999267578125,145.2248992919922,145.17999267578125,145.2248992919922,1150,0.0,0.0
2024-07-15 12:39:00-04:00,145.22999572753906,145.22999572753906,145.22999572753906,145.22999572753906,324,0.0,0.0
2024-07-15 12:41:00-04:00,145.2100067138672,145.22999572753906,145.2100067138672,145.22999572753906,483,0.0,0.0
2024-07-15 12:44:00-04:00,145.2899932861328,145.2899932861328,145.2899932861328,145.2899932861328,585,0.0,0.0
2024-07-15 12:45:00-04:00,145.11000061035156,145.1699981689453,145.11000061035156,145.1699981689453,1016,0.0,0.0
2024-07-15 12:51:00-04:00,145.1999969482422,145.1999969482422,145.1999969482422,145.1999969482422,325,0.0,0.0
2024-07-15 12:55:00-04:00,145.09500122070312,145.09500122070312,145.09500122070312,145.09500122070312,234,0.0,0.0
2024-07-15 12:56:00-04:00,145.06500244140625,145.06500244140625,145.06500244140625,145.06500244140625,684,0.0,0.0
2024-07-15 13:02:00-04:00,144.97000122070312,144.97000122070312,144.82000732421875,144.82000732421875,1110,0.0,0.0
2024-07-15 13:04:00-04:00,144.83999633789062,144.83999633789062,144.83999633789062,144.83999633789062,664,0.0,0.0
2024-07-15 13:05:00-04:00,144.875,144.875,144.875,144.875,195,0.0,0.0
2024-07-15 13:07:00-04:00,144.875,144.875,144.875,144.875,281,0.0,0.0
2024-07-15 13:10:00-04:00,144.8000030517578,144.8800048828125,144.8000030517578,144.8800048828125,601,0.0,0.0
2024-07-15 13:12:00-04:00,144.75999450683594,144.75999450683594,144.75999450683594,144.75999450683594,336,0.0,0.0
2024-07-15 13:13:00-04:00,144.72999572753906,144.72999572753906,144.72999572753906,144.72999572753906,153,0.0,0.0
2024-07-15 13:14:00-04:00,144.6699981689453,144.6699981689453,144.6699981689453,144.6699981689453,322,0.0,0.0
2024-07-15 13:15:00-04:00,144.74000549316406,144.74000549316406,144.74000549316406,144.74000549316406,132,0.0,0.0
2024-07-15 13:17:00-04:00,144.64999389648438,144.64999389648438,144.64999389648438,144.64999389648438,1148,0.0,0.0
2024-07-15 13:27:00-04:00,144.52999877929688,144.52999877929688,144.52999877929688,144.52999877929688,505,0.0,0.0
2024-07-15 13:31:00-04:00,144.4199981689453,144.4199981689453,144.4199981689453,144.4199981689453,402,0.0,0.0
2024-07-15 13:32:00-04:00,144.33999633789062,144.33999633789062,144.33999633789062,144.33999633789062,217,0.0,0.0
2024-07-15 13:33:00-04:00,144.33999633789062,144.33999633789062,144.33999633789062,144.33999633789062,742,0.0,0.0
2024-07-15 13:36:00-04:00,144.35000610351562,144.35000610351562,144.1300048828125,144.1300048828125,1539,0.0,0.0
2024-07-15 13:37:00-04:00,144.30999755859375,144.30999755859375,144.24000549316406,144.30999755859375,701,0.0,0.0
2024-07-15 13:38:00-04:00,144.27000427246094,144.27000427246094,144.27000427246094,144.27000427246094,578,0.0,0.0
2024-07-15 13:40:00-04:00,144.30999755859375,144.30999755859375,144.30999755859375,144.30999755859375,245,0.0,0.0
2024-07-15 13:42:00-04:00,144.30999755859375,144.4499969482422,144.30999755859375,144.39999389648438,2017,0.0,0.0
2024-07-15 13:47:00-04:00,144.31500244140625,144.31500244140625,144.31500244140625,144.31500244140625,628,0.0,0.0
2024-07-15 13:57:00-04:00,144.27000427246094,144.27000427246094,144.27000427246094,144.27000427246094,329,0.0,0.0
2024-07-15 14:01:00-04:00,144.2100067138672,144.2100067138672,144.2100067138672,144.2100067138672,190,0.0,0.0
2024-07-15 14:02:00-04:00,144.35079956054688,144.35079956054688,144.35079956054688,144.35079956054688,1675,0.0,0.0
2024-07-15 14:07:00-04:00,144.33599853515625,144.33599853515625,144.33599853515625,144.33599853515625,1846,0.0,0.0
2024-07-15 14:08:00-04:00,144.21009826660156,144.22000122070312,144.2100067138672,144.2100067138672,584,0.0,0.0
2024-07-15 14:10:00-04:00,144.2100067138672,144.2100067138672,144.2100067138672,144.2100067138672,411,0.0,0.0
2024-07-15 14:11:00-04:00,144.0399932861328,144.0399932861328,144.0399932861328,144.0399932861328,101,0.0,0.0
2024-07-15 14:12:00-04:00,144.02999877929688,144.02999877929688,144.02999877929688,144.02999877929688,1624,0.0,0.0
2024-07-15 14:23:00-04:00,144.1699981689453,144.17999267578125,144.125,144.125,1269,0.0,0.0
2024-07-15 14:25:00-04:00,144.125,144.125,144.125,144.125,398,0.0,0.0
2024-07-15 14:26:00-04:00,144.11000061035156,144.11000061035156,144.11000061035156,144.11000061035156,836,0.0,0.0
2024-07-15 14:28:00-04:00,144.0800018310547,144.0800018310547,144.0800018310547,144.0800018310547,864,0.0,0.0
2024-07-15 14:30:00-04:00,144.0500030517578,144.0500030517578,144.02999877929688,144.02999877929688,485,0.0,0.0
2024-07-15 14:32:00-04:00,144.02999877929688,144.02999877929688,144.0,144.00999450683594,1014,0.0,0.0
2024-07-15 14:33:00-04:00,144.00999450683594,144.00999450683594,143.97999572753906,143.97999572753906,1013,0.0,0.0
2024-07-15 14:35:00-04:00,143.94000244140625,143.94000244140625,143.82000732421875,143.82000732421875,1334,0.0,0.0
2024-07-15 14:37:00-04:00,143.83999633789062,143.83999633789062,143.80999755859375,143.80999755859375,685,0.0,0.0
2024-07-15 14:40:00-04:00,143.82620239257812,143.82620239257812,143.82620239257812,143.82620239257812,717,0.0,0.0
2024-07-15 14:47:00-04:00,143.7100067138672,143.7100067138672,143.7100067138672,143.7100067138672,890,0.0,0.0
2024-07-15 14:51:00-04:00,143.72250366210938,143.72250366210938,143.72250366210938,143.72250366210938,997,0.0,0.0
2024-07-15 15:01:00-04:00,143.6699981689453,143.72500610351562,143.6699981689453,143.72500610351562,291,0.0,0.0
2024-07-15 15:02:00-04:00,143.77999877929688,143.77999877929688,143.72999572753906,143.72999572753906,1738,0.0,0.0
2024-07-15 15:09:00-04:00,143.72000122070312,143.86000061035156,143.72000122070312,143.86000061035156,3123,0.0,0.0
2024-07-15 15:10:00-04:00,143.78500366210938,143.78500366210938,143.78500366210938,143.78500366210938,805,0.0,0.0
2024-07-15 15:13:00-04:00,143.8699951171875,143.8699951171875,143.8699951171875,143.8699951171875,593,0.0,0.0
2024-07-15 15:16:00-04:00,143.7899932861328,143.8000030517578,143.77999877929688,143.8000030517578,560,0.0,0.0
2024-07-15 15:18:00-04:00,143.77000427246094,143.77000427246094,143.77000427246094,143.77000427246094,124,0.0,0.0
2024-07-15 15:19:00-04:00,143.75,143.75,143.75,143.75,1281,0.0,0.0
2024-07-15 15:22:00-04:00,143.77000427246094,143.77000427246094,143.75999450683594,143.75999450683594,2818,0.0,0.0
2024-07-15 15:26:00-04:00,143.61000061035156,143.61000061035156,143.5800018310547,143.5800018310547,889,0.0,0.0
2024-07-15 15:28:00-04:00,143.61000061035156,143.61000061035156,143.61000061035156,143.61000061035156,104,0.0,0.0
2024-07-15 15:29:00-04:00,143.55999755859375,143.55999755859375,143.55999755859375,143.55999755859375,822,0.0,0.0
2024-07-15 15:30:00-04:00,143.55999755859375,143.66299438476562,143.55999755859375,143.66299438476562,1396,0.0,0.0
2024-07-15 15:31:00-04:00,143.66000366210938,143.66000366210938,143.64999389648438,143.64999389648438,759,0.0,0.0
2024-07-15 15:32:00-04:00,143.63999938964844,143.63999938964844,143.6300048828125,143.6300048828125,728,0.0,0.0
2024-07-15 15:34:00-04:00,143.59500122070312,143.59500122070312,143.59500122070312,143.59500122070312,585,0.0,0.0
2024-07-15 15:37:00-04:00,143.61900329589844,143.6300048828125,143.61900329589844,143.6300048828125,700,0.0,0.0
2024-07-15 15:38:00-04:00,143.6699981689453,143.6699981689453,143.60000610351562,143.625,1694,0.0,0.0
2024-07-15 15:40:00-04:00,143.69000244140625,143.72999572753906,143.69000244140625,143.6999969482422,1399,0.0,0.0
2024-07-15 15:42:00-04:00,143.69000244140625,143.69000244140625,143.47000122070312,143.47000122070312,2220,0.0,0.0
2024-07-15 15:43:00-04:00,143.48500061035156,143.52000427246094,143.46800231933594,143.47000122070312,1296,0.0,0.0
2024-07-15 15:44:00-04:00,143.4199981689453,143.4199981689453,143.4199981689453,143.4199981689453,157,0.0,0.0
2024-07-15 15:46:00-04:00,143.3800048828125,143.3800048828125,143.3000030517578,143.3000030517578,1596,0.0,0.0
2024-07-15 15:47:00-04:00,143.2550048828125,143.2899932861328,143.2469940185547,143.2469940185547,1155,0.0,0.0
2024-07-15 15:48:00-04:00,143.30999755859375,143.30999755859375,143.27499389648438,143.2899932861328,1728,0.0,0.0
2024-07-15 15:49:00-04:00,143.2480010986328,143.2480010986328,143.2480010986328,143.2480010986328,1008,0.0,0.0
2024-07-15 15:50:00-04:00,143.25,143.27999877929688,143.21499633789062,143.21499633789062,1138,0.0,0.0
2024-07-15 15:51:00-04:00,143.2949981689453,143.2949981689453,143.2949981689453,143.2949981689453,1951,0.0,0.0
2024-07-15 15:52:00-04:00,143.3300018310547,143.3300018310547,143.30999755859375,143.30999755859375,1246,0.0,0.0
2024-07-15 15:53:00-04:00,143.1699981689453,143.25999450683594,143.13999938964844,143.25999450683594,4252,0.0,0.0
2024-07-15 15:54:00-04:00,143.25900268554688,143.28500366210938,143.24000549316406,143.28500366210938,2738,0.0,0.0
2024-07-15 15:55:00-04:00,143.24000549316406,143.33999633789062,143.22999572753906,143.27999877929688,5809,0.0,0.0
2024-07-15 15:56:00-04:00,143.25,143.2899932861328,143.23399353027344,143.23399353027344,3448,0.0,0.0
2024-07-15 15:57:00-04:00,143.19000244140625,143.23500061035156,143.19000244140625,143.1999969482422,4602,0.0,0.0
2024-07-15 15:58:00-04:00,143.2100067138672,143.2449951171875,143.1999969482422,143.22999572753906,4911,0.0,0.0
2024-07-15 15:59:00-04:00,143.27000427246094,143.47000122070312,143.25999450683594,143.4600067138672,13028,0.0,0.0
2024-07-16 09:30:00-04:00,143.85000610351562,144.10000610351562,143.85000610351562,144.10000610351562,1937,0.0,0.0
2024-07-16 09:31:00-04:00,144.03500366210938,144.03500366210938,144.03500366210938,144.03500366210938,113,0.0,0.0
2024-07-16 09:32:00-04:00,144.02999877929688,144.32200622558594,144.0,144.32200622558594,831,0.0,0.0
2024-07-16 09:42:00-04:00,144.33999633789062,144.38999938964844,144.33999633789062,144.38999938964844,490,0.0,0.0
2024-07-16 09:44:00-04:00,144.27499389648438,144.27499389648438,144.27499389648438,144.27499389648438,174,0.0,0.0
2024-07-16 09:46:00-04:00,144.5399932861328,144.5399932861328,144.5399932861328,144.5399932861328,448,0.0,0.0
2024-07-16 09:47:00-04:00,144.6699981689453,144.91000366210938,144.6699981689453,144.91000366210938,566,0.0,0.0
2024-07-16 09:54:00-04:00,144.8300018310547,144.8300018310547,144.8300018310547,144.8300018310547,970,0.0,0.0
2024-07-16 09:55:00-04:00,144.81500244140625,144.9600067138672,144.81500244140625,144.9600067138672,252,0.0,0.0
2024-07-16 09:56:00-04:00,144.75999450683594,144.75999450683594,144.75999450683594,144.75999450683594,109,0.0,0.0
2024-07-16 09:57:00-04:00,144.63999938964844,144.63999938964844,144.63999938964844,144.63999938964844,764,0.0,0.0
2024-07-16 10:00:00-04:00,144.6649932861328,144.6649932861328,144.6649932861328,144.6649932861328,102,0.0,0.0
2024-07-16 10:01:00-04:00,144.6649932861328,144.97999572753906,144.6649932861328,144.75999450683594,1049,0.0,0.0
2024-07-16 10:04:00-04:00,144.75999450683594,144.75999450683594,144.75999450683594,144.75999450683594,126,0.0,0.0
2024-07-16 10:06:00-04:00,144.7449951171875,144.89999389648438,144.74000549316406,144.89999389648438,1497,0.0,0.0
2024-07-16 10:12:00-04:00,144.59500122070312,144.59500122070312,144.5800018310547,144.5800018310547,403,0.0,0.0
2024-07-16 10:13:00-04:00,144.63999938964844,144.77000427246094,144.5800018310547,144.6750030517578,2024,0.0,0.0
2024-07-16 10:19:00-04:00,144.66000366210938,144.66000366210938,144.50999450683594,144.50999450683594,1302,0.0,0.0
2024-07-16 10:21:00-04:00,144.35000610351562,144.35000610351562,144.35000610351562,144.35000610351562,588,0.0,0.0
2024-07-16 10:25:00-04:00,144.39999389648438,144.39999389648438,144.39999389648438,144.39999389648438,174,0.0,0.0
2024-07-16 10:26:00-04:00,144.27999877929688,144.27999877929688,144.22000122070312,144.22000122070312,726,0.0,0.0
2024-07-16 10:27:00-04:00,144.02999877929688,144.02999877929688,144.02000427246094,144.02000427246094,547,0.0,0.0
2024-07-16 10:28:00-04:00,144.3300018310547,144.47000122070312,144.3300018310547,144.47000122070312,1145,0.0,0.0
2024-07-16 10:33:00-04:00,144.4499969482422,144.4499969482422,144.4499969482422,144.4499969482422,178,0.0,0.0
2024-07-16 10:34:00-04:00,144.47500610351562,144.47999572753906,144.47500610351562,144.47999572753906,537,0.0,0.0
2024-07-16 10:36:00-04:00,144.38999938964844,144.47000122070312,144.38999938964844,144.47000122070312,634,0.0,0.0
2024-07-16 10:39:00-04:00,144.42999267578125,144.42999267578125,144.42999267578125,144.42999267578125,228,0.0,0.0
2024-07-16 10:40:00-04:00,144.35000610351562,144.74000549316406,144.35000610351562,144.74000549316406,2390,0.0,0.0
2024-07-16 10:41:00-04:00,144.5800018310547,144.5800018310547,144.39999389648438,144.39999389648438,1000,0.0,0.0
2024-07-16 10:49:00-04:00,144.6199951171875,144.6199951171875,144.6199951171875,144.6199951171875,149,0.0,0.0
2024-07-16 10:51:00-04:00,144.625,144.625,144.625,144.625,207,0.0,0.0
2024-07-16 10:52:00-04:00,144.625,144.72000122070312,144.625,144.72000122070312,429,0.0,0.0
2024-07-16 10:53:00-04:00,144.52999877929688,144.52999877929688,144.52999877929688,144.52999877929688,350,0.0,0.0
2024-07-16 10:56:00-04:00,144.5,144.52000427246094,144.47000122070312,144.47000122070312,1750,0.0,0.0
2024-07-16 11:02:00-04:00,144.47000122070312,144.47000122070312,144.47000122070312,144.47000122070312,127,0.0,0.0
2024-07-16 11:03:00-04:00,144.47000122070312,144.47000122070312,144.47000122070312,144.47000122070312,393,0.0,0.0
2024-07-16 11:05:00-04:00,144.5800018310547,144.73500061035156,144.48500061035156,144.73500061035156,2532,0.0,0.0
2024-07-16 11:09:00-04:00,144.75,144.75,144.75,144.75,384,0.0,0.0
2024-07-16 11:10:00-04:00,144.8800048828125,144.9199981689453,144.8800048828125,144.9199981689453,458,0.0,0.0
2024-07-16 11:14:00-04:00,144.74000549316406,144.75,144.7100067138672,144.7100067138672,1825,0.0,0.0
2024-07-16 11:28:00-04:00,144.7100067138672,144.7100067138672,144.7100067138672,144.7100067138672,368,0.0,0.0
2024-07-16 11:30:00-04:00,144.67999267578125,144.67999267578125,144.67999267578125,144.67999267578125,529,0.0,0.0
2024-07-16 11:33:00-04:00,144.5399932861328,144.5399932861328,144.5399932861328,144.5399932861328,387,0.0,0.0
2024-07-16 11:37:00-04:00,144.6699981689453,144.8300018310547,144.6699981689453,144.8300018310547,1642,0.0,0.0
2024-07-16 11:43:00-04:00,144.64999389648438,144.76800537109375,144.64999389648438,144.7375030517578,466,0.0,0.0
2024-07-16 11:44:00-04:00,144.86000061035156,144.97999572753906,144.83999633789062,144.97999572753906,921,0.0,0.0
2024-07-16 11:45:00-04:00,145.02000427246094,145.02000427246094,145.02000427246094,145.02000427246094,272,0.0,0.0
2024-07-16 11:48:00-04:00,144.8300018310547,144.8300018310547,144.77000427246094,144.77000427246094,1337,0.0,0.0
2024-07-16 11:53:00-04:00,144.91000366210938,144.9499969482422,144.88999938964844,144.88999938964844,692,0.0,0.0
2024-07-16 11:54:00-04:00,144.9499969482422,144.9499969482422,144.92999267578125,144.92999267578125,614,0.0,0.0
2024-07-16 11:55:00-04:00,144.9600067138672,144.9600067138672,144.94000244140625,144.94000244140625,448,0.0,0.0
2024-07-16 11:57:00-04:00,144.9499969482422,144.9499969482422,144.9499969482422,144.9499969482422,179,0.0,0.0
2024-07-16 11:58:00-04:00,144.97999572753906,144.97999572753906,144.97999572753906,144.97999572753906,150,0.0,0.0
2024-07-16 11:59:00-04:00,145.02000427246094,145.02000427246094,145.02000427246094,145.02000427246094,214,0.0,0.0
2024-07-16 12:00:00-04:00,145.0,145.00999450683594,145.0,145.00999450683594,458,0.0,0.0
2024-07-16 12:01:00-04:00,144.99000549316406,144.99000549316406,144.99000549316406,144.99000549316406,153,0.0,0.0
2024-07-16 12:03:00-04:00,144.99000549316406,144.99000549316406,144.99000549316406,144.99000549316406,622,0.0,0.0
2024-07-16 12:06:00-04:00,145.02000427246094,145.02000427246094,144.97500610351562,144.97500610351562,1302,0.0,0.0
2024-07-16 12:07:00-04:00,145.02999877929688,145.02999877929688,145.02999877929688,145.02999877929688,368,0.0,0.0
2024-07-16 12:08:00-04:00,145.0399932861328,145.22999572753906,145.0399932861328,145.1750030517578,1901,0.0,0.0
2024-07-16 12:09:00-04:00,145.1999969482422,145.3000030517578,144.99000549316406,144.99000549316406,2062,0.0,0.0
2024-07-16 12:15:00-04:00,144.97000122070312,144.97000122070312,144.97000122070312,144.97000122070312,690,0.0,0.0
2024-07-16 12:24:00-04:00,145.11000061035156,145.13999938964844,145.11000061035156,145.13999938964844,867,0.0,0.0
2024-07-16 12:27:00-04:00,144.99000549316406,144.99000549316406,144.99000549316406,144.99000549316406,771,0.0,0.0
2024-07-16 12:41:00-04:00,145.05999755859375,145.05999755859375,145.05999755859375,145.05999755859375,276,0.0,0.0
2024-07-16 12:42:00-04:00,144.99000549316406,144.99000549316406,144.99000549316406,144.99000549316406,319,0.0,0.0
2024-07-16 12:47:00-04:00,145.05999755859375,145.05999755859375,145.00999450683594,145.02999877929688,1183,0.0,0.0
2024-07-16 12:50:00-04:00,145.00999450683594,145.00999450683594,145.00999450683594,145.00999450683594,1007,0.0,0.0
2024-07-16 13:02:00-04:00,144.8699951171875,144.8699951171875,144.8699951171875,144.8699951171875,302,0.0,0.0
2024-07-16 13:08:00-04:00,144.83050537109375,144.83050537109375,144.83050537109375,144.83050537109375,479,0.0,0.0
2024-07-16 13:12:00-04:00,144.83999633789062,144.83999633789062,144.81500244140625,144.81500244140625,683,0.0,0.0
2024-07-16 13:13:00-04:00,144.80999755859375,144.80999755859375,144.80999755859375,144.80999755859375,484,0.0,0.0
2024-07-16 13:16:00-04:00,144.80999755859375,144.82000732421875,144.80999755859375,144.82000732421875,1039,0.0,0.0
2024-07-16 13:18:00-04:00,144.67999267578125,144.69000244140625,144.67999267578125,144.69000244140625,622,0.0,0.0
2024-07-16 13:23:00-04:00,144.7550048828125,144.7550048828125,144.7550048828125,144.7550048828125,310,0.0,0.0
2024-07-16 13:26:00-04:00,144.64999389648438,144.64999389648438,144.64999389648438,144.64999389648438,883,0.0,0.0
2024-07-16 13:34:00-04:00,144.55999755859375,144.55999755859375,144.55999755859375,144.55999755859375,165,0.0,0.0
2024-07-16 13:35:00-04:00,144.63999938964844,144.63999938964844,144.63999938964844,144.63999938964844,582,0.0,0.0
2024-07-16 13:39:00-04:00,144.63499450683594,144.63499450683594,144.63499450683594,144.63499450683594,613,0.0,0.0
2024-07-16 13:40:00-04:00,144.5500030517578,144.5500030517578,144.5500030517578,144.5500030517578,685,0.0,0.0
2024-07-16 13:45:00-04:00,144.63999938964844,144.63999938964844,144.63999938964844,144.63999938964844,1082,0.0,0.0
2024-07-16 13:48:00-04:00,144.67999267578125,144.67999267578125,144.67999267578125,144.67999267578125,105,0.0,0.0
2024-07-16 13:49:00-04:00,144.64999389648438,144.64999389648438,144.64999389648438,144.64999389648438,743,0.0,0.0
2024-07-16 13:54:00-04:00,144.57000732421875,144.57000732421875,144.57000732421875,144.57000732421875,308,0.0,0.0
2024-07-16 13:57:00-04:00,144.58999633789062,144.58999633789062,144.58999633789062,144.58999633789062,381,0.0,0.0
2024-07-16 14:00:00-04:00,144.58999633789062,144.58999633789062,144.58999633789062,144.58999633789062,1265,0.0,0.0
2024-07-16 14:07:00-04:00,144.61500549316406,144.61500549316406,144.61500549316406,144.61500549316406,199,0.0,0.0
2024-07-16 14:09:00-04:00,144.57000732421875,144.57000732421875,144.5399932861328,144.5399932861328,992,0.0,0.0
2024-07-16 14:14:00-04:00,144.63499450683594,144.72000122070312,144.63499450683594,144.72000122070312,979,0.0,0.0
2024-07-16 14:15:00-04:00,144.6300048828125,144.6300048828125,144.60000610351562,144.60000610351562,1013,0.0,0.0
2024-07-16 14:18:00-04:00,144.4499969482422,144.47999572753906,144.38600158691406,144.38600158691406,1120,0.0,0.0
2024-07-16 14:20:00-04:00,144.4199981689453,144.4199981689453,144.4199981689453,144.4199981689453,147,0.0,0.0
2024-07-16 14:22:00-04:00,144.51499938964844,144.51499938964844,144.51499938964844,144.51499938964844,648,0.0,0.0
2024-07-16 14:24:00-04:00,144.42999267578125,144.42999267578125,144.42999267578125,144.42999267578125,1168,0.0,0.0
2024-07-16 14:33:00-04:00,144.43499755859375,144.43499755859375,144.43499755859375,144.43499755859375,424,0.0,0.0
2024-07-16 14:36:00-04:00,144.49000549316406,144.5,144.4499969482422,144.5,1940,0.0,0.0
2024-07-16 14:37:00-04:00,144.44000244140625,144.5,144.44000244140625,144.5,429,0.0,0.0
2024-07-16 14:40:00-04:00,144.60000610351562,144.60000610351562,144.60000610351562,144.60000610351562,498,0.0,0.0
2024-07-16 14:42:00-04:00,144.5399932861328,144.5399932861328,144.5399932861328,144.5399932861328,145,0.0,0.0
2024-07-16 14:44:00-04:00,144.5399932861328,144.5399932861328,144.5399932861328,144.5399932861328,287,0.0,0.0
2024-07-16 14:45:00-04:00,144.5399932861328,144.5399932861328,144.5399932861328,144.5399932861328,351,0.0,0.0
2024-07-16 14:46:00-04:00,144.55999755859375,144.55999755859375,144.55999755859375,144.55999755859375,572,0.0,0.0
2024-07-16 14:50:00-04:00,144.5399932861328,144.55999755859375,144.5399932861328,144.55999755859375,556,0.0,0.0
2024-07-16 14:53:00-04:00,144.5800018310547,144.5800018310547,144.5800018310547,144.5800018310547,281,0.0,0.0
2024-07-16 14:54:00-04:00,144.57000732421875,144.57000732421875,144.57000732421875,144.57000732421875,421,0.0,0.0
2024-07-16 14:57:00-04:00,144.6300048828125,144.63999938964844,144.59500122070312,144.63999938964844,1581,0.0,0.0
2024-07-16 14:59:00-04:00,144.6300048828125,144.6300048828125,144.57400512695312,144.57400512695312,295,0.0,0.0
2024-07-16 15:00:00-04:00,144.5500030517578,144.55999755859375,144.5399932861328,144.5399932861328,1499,0.0,0.0
2024-07-16 15:04:00-04:00,144.58999633789062,144.63999938964844,144.58999633789062,144.63999938964844,1145,0.0,0.0
2024-07-16 15:10:00-04:00,144.61500549316406,144.61500549316406,144.61500549316406,144.61500549316406,236,0.0,0.0
2024-07-16 15:12:00-04:00,144.5800018310547,144.5800018310547,144.5800018310547,144.5800018310547,345,0.0,0.0
2024-07-16 15:15:00-04:00,144.5399932861328,144.5500030517578,144.5399932861328,144.5500030517578,841,0.0,0.0
2024-07-16 15:17:00-04:00,144.5399932861328,144.5399932861328,144.5399932861328,144.5399932861328,241,0.0,0.0
2024-07-16 15:20:00-04:00,144.49000549316406,144.50999450683594,144.49000549316406,144.50999450683594,822,0.0,0.0
2024-07-16 15:24:00-04:00,144.5449981689453,144.5800018310547,144.5449981689453,144.5800018310547,979,0.0,0.0
2024-07-16 15:26:00-04:00,144.5800018310547,144.6699981689453,144.5800018310547,144.6699981689453,1667,0.0,0.0
2024-07-16 15:30:00-04:00,144.6300048828125,144.66000366210938,144.6300048828125,144.66000366210938,502,0.0,0.0
2024-07-16 15:31:00-04:00,144.72999572753906,144.72999572753906,144.72999572753906,144.72999572753906,412,0.0,0.0
2024-07-16 15:33:00-04:00,144.75,144.75,144.72999572753906,144.72999572753906,373,0.0,0.0
2024-07-16 15:34:00-04:00,144.75999450683594,144.75999450683594,144.72999572753906,144.72999572753906,610,0.0,0.0
2024-07-16 15:35:00-04:00,144.76300048828125,144.76300048828125,144.76300048828125,144.76300048828125,282,0.0,0.0
2024-07-16 15:36:00-04:00,144.7899932861328,144.81500244140625,144.74000549316406,144.75,2222,0.0,0.0
2024-07-16 15:37:00-04:00,144.7100067138672,144.7100067138672,144.7100067138672,144.7100067138672,392,0.0,0.0
2024-07-16 15:39:00-04:00,144.69000244140625,144.69000244140625,144.69000244140625,144.69000244140625,530,0.0,0.0
2024-07-16 15:41:00-04:00,144.61000061035156,144.61000061035156,144.58999633789062,144.60000610351562,752,0.0,0.0
2024-07-16 15:42:00-04:00,144.61000061035156,144.61000061035156,144.57000732421875,144.57000732421875,641,0.0,0.0
2024-07-16 15:43:00-04:00,144.60000610351562,144.60000610351562,144.60000610351562,144.60000610351562,233,0.0,0.0
2024-07-16 15:44:00-04:00,144.5449981689453,144.6300048828125,144.5449981689453,144.6300048828125,1957,0.0,0.0
2024-07-16 15:45:00-04:00,144.63999938964844,144.63999938964844,144.58999633789062,144.58999633789062,591,0.0,0.0
2024-07-16 15:46:00-04:00,144.50999450683594,144.50999450683594,144.47000122070312,144.49000549316406,1195,0.0,0.0
2024-07-16 15:47:00-04:00,144.49099731445312,144.5,144.49099731445312,144.5,641,0.0,0.0
2024-07-16 15:48:00-04:00,144.47999572753906,144.5,144.47999572753906,144.5,1187,0.0,0.0
2024-07-16 15:49:00-04:00,144.4600067138672,144.4600067138672,144.4199981689453,144.4199981689453,1152,0.0,0.0
2024-07-16 15:50:00-04:00,144.42999267578125,144.55999755859375,144.42999267578125,144.55999755859375,3440,0.0,0.0
2024-07-16 15:51:00-04:00,144.63999938964844,144.63999938964844,144.63999938964844,144.63999938964844,846,0.0,0.0
2024-07-16 15:52:00-04:00,144.6300048828125,144.72000122070312,144.6199951171875,144.6199951171875,4823,0.0,0.0
2024-07-16 15:53:00-04:00,144.6840057373047,144.72000122070312,144.6840057373047,144.72000122070312,815,0.0,0.0
2024-07-16 15:54:00-04:00,144.72999572753906,144.72999572753906,144.6999969482422,144.6999969482422,1339,0.0,0.0
2024-07-16 15:55:00-04:00,144.67999267578125,144.72000122070312,144.6699981689453,144.72000122070312,1433,0.0,0.0
2024-07-16 15:56:00-04:00,144.73500061035156,144.73500061035156,144.64999389648438,144.7030029296875,3304,0.0,0.0
2024-07-16 15:57:00-04:00,144.7100067138672,144.7100067138672,144.63499450683594,144.66000366210938,3848,0.0,0.0
2024-07-16 15:58:00-04:00,144.6300048828125,144.63999938964844,144.60000610351562,144.61000061035156,4683,0.0,0.0
2024-07-16 15:59:00-04:00,144.53500366210938,144.58999633789062,144.4199981689453,144.58999633789062,11656,0.0,0.0
2024-07-17 09:30:00-04:00,144.33999633789062,144.33999633789062,144.33999633789062,144.33999633789062,2954,0.0,0.0
2024-07-17 09:37:00-04:00,144.58999633789062,144.99000549316406,144.58999633789062,144.9499969482422,1069,0.0,0.0
2024-07-17 09:48:00-04:00,145.32000732421875,145.32000732421875,145.32000732421875,145.32000732421875,268,0.0,0.0
2024-07-17 09:52:00-04:00,145.39999389648438,145.4199981689453,145.39999389648438,145.41000366210938,735,0.0,0.0
2024-07-17 10:00:00-04:00,145.35499572753906,145.35499572753906,145.35499572753906,145.35499572753906,515,0.0,0.0
2024-07-17 10:13:00-04:00,145.28500366210938,145.28500366210938,145.28500366210938,145.28500366210938,285,0.0,0.0
2024-07-17 10:15:00-04:00,145.0800018310547,145.27499389648438,145.0399932861328,145.0449981689453,2633,0.0,0.0
2024-07-17 10:20:00-04:00,145.19020080566406,145.19020080566406,145.19020080566406,145.19020080566406,281,0.0,0.0
2024-07-17 10:22:00-04:00,145.0399932861328,145.0399932861328,145.0399932861328,145.0399932861328,223,0.0,0.0
2024-07-17 10:23:00-04:00,145.05499267578125,145.17999267578125,145.0500030517578,145.17999267578125,364,0.0,0.0
2024-07-17 10:24:00-04:00,145.05499267578125,145.05499267578125,145.0449981689453,145.0449981689453,662,0.0,0.0
2024-07-17 10:25:00-04:00,145.14999389648438,145.32000732421875,145.10000610351562,145.10000610351562,1044,0.0,0.0
2024-07-17 10:26:00-04:00,145.125,145.2449951171875,145.02499389648438,145.02499389648438,2058,0.0,0.0
2024-07-17 10:31:00-04:00,145.05499267578125,145.05499267578125,145.00999450683594,145.00999450683594,2007,0.0,0.0
2024-07-17 10:34:00-04:00,145.09500122070312,145.09500122070312,145.0800018310547,145.0800018310547,347,0.0,0.0
2024-07-17 10:35:00-04:00,144.99000549316406,145.11000061035156,144.9600067138672,144.9600067138672,1285,0.0,0.0
2024-07-17 10:36:00-04:00,144.96499633789062,145.0399932861328,144.96499633789062,145.0399932861328,297,0.0,0.0
2024-07-17 10:37:00-04:00,144.88999938964844,144.88999938964844,144.8350067138672,144.8350067138672,553,0.0,0.0
2024-07-17 10:40:00-04:00,144.8300018310547,144.8300018310547,144.8249969482422,144.8249969482422,340,0.0,0.0
2024-07-17 10:41:00-04:00,144.91000366210938,144.97999572753906,144.89999389648438,144.89999389648438,1020,0.0,0.0
2024-07-17 10:43:00-04:00,145.0399932861328,145.0800018310547,145.01499938964844,145.01499938964844,1110,0.0,0.0
2024-07-17 10:45:00-04:00,145.04750061035156,145.04750061035156,145.0449981689453,145.0449981689453,532,0.0,0.0
2024-07-17 10:46:00-04:00,145.05999755859375,145.07000732421875,144.88999938964844,144.9949951171875,2709,0.0,0.0
2024-07-17 10:47:00-04:00,145.08999633789062,145.08999633789062,145.08999633789062,145.08999633789062,350,0.0,0.0
2024-07-17 10:48:00-04:00,145.0449981689453,145.0749969482422,145.0449981689453,145.07000732421875,3429,0.0,0.0
2024-07-17 10:50:00-04:00,145.07000732421875,145.07000732421875,145.07000732421875,145.07000732421875,656,0.0,0.0
2024-07-17 10:52:00-04:00,145.28500366210938,145.31500244140625,145.08099365234375,145.31500244140625,9423,0.0,0.0
2024-07-17 10:53:00-04:00,145.30999755859375,145.30999755859375,145.30999755859375,145.30999755859375,431,0.0,0.0
2024-07-17 10:56:00-04:00,145.09500122070312,145.09500122070312,145.09500122070312,145.09500122070312,1944,0.0,0.0
2024-07-17 11:07:00-04:00,145.12750244140625,145.14999389648438,145.12750244140625,145.14999389648438,1407,0.0,0.0
2024-07-17 11:18:00-04:00,144.9499969482422,144.9499969482422,144.92999267578125,144.92999267578125,894,0.0,0.0
2024-07-17 11:20:00-04:00,145.13999938964844,145.13999938964844,145.0800018310547,145.125,2032,0.0,0.0
2024-07-17 11:28:00-04:00,145.07000732421875,145.07000732421875,145.07000732421875,145.07000732421875,442,0.0,0.0
2024-07-17 11:34:00-04:00,145.0749969482422,145.0749969482422,145.0749969482422,145.0749969482422,309,0.0,0.0
2024-07-17 11:37:00-04:00,145.06500244140625,145.06500244140625,144.88999938964844,144.88999938964844,1776,0.0,0.0
2024-07-17 11:38:00-04:00,144.91000366210938,144.91000366210938,144.89999389648438,144.89999389648438,1506,0.0,0.0
2024-07-17 11:39:00-04:00,144.89999389648438,144.89999389648438,144.89999389648438,144.89999389648438,776,0.0,0.0
2024-07-17 11:41:00-04:00,144.97000122070312,144.97000122070312,144.97000122070312,144.97000122070312,266,0.0,0.0
2024-07-17 11:42:00-04:00,145.02000427246094,145.02000427246094,145.0,145.0,712,0.0,0.0
2024-07-17 11:46:00-04:00,145.0399932861328,145.0399932861328,145.0399932861328,145.0399932861328,350,0.0,0.0
2024-07-17 11:47:00-04:00,145.0800018310547,145.0800018310547,145.05499267578125,145.05499267578125,1558,0.0,0.0
2024-07-17 11:50:00-04:00,145.06500244140625,145.06500244140625,145.06500244140625,145.06500244140625,488,0.0,0.0
2024-07-17 11:52:00-04:00,145.07000732421875,145.07000732421875,145.07000732421875,145.07000732421875,367,0.0,0.0
2024-07-17 11:54:00-04:00,145.14999389648438,145.14999389648438,145.14999389648438,145.14999389648438,1104,0.0,0.0
2024-07-17 11:56:00-04:00,145.32000732421875,145.41000366210938,145.32000732421875,145.41000366210938,927,0.0,0.0
2024-07-17 11:57:00-04:00,145.5800018310547,145.5800018310547,145.5800018310547,145.5800018310547,456,0.0,0.0
2024-07-17 12:03:00-04:00,145.5482940673828,145.7698974609375,145.5482940673828,145.7698974609375,710,0.0,0.0
2024-07-17 12:05:00-04:00,145.41000366210938,145.53500366210938,145.41000366210938,145.53500366210938,862,0.0,0.0
2024-07-17 12:06:00-04:00,145.47000122070312,145.47000122070312,145.47000122070312,145.47000122070312,320,0.0,0.0
2024-07-17 12:07:00-04:00,145.360107421875,145.44000244140625,145.360107421875,145.44000244140625,930,0.0,0.0
2024-07-17 12:10:00-04:00,145.4541015625,145.4600067138672,145.4541015625,145.4600067138672,1078,0.0,0.0
2024-07-17 12:11:00-04:00,145.52999877929688,145.52999877929688,145.52999877929688,145.52999877929688,240,0.0,0.0
2024-07-17 12:12:00-04:00,145.6300048828125,145.6300048828125,145.6300048828125,145.6300048828125,769,0.0,0.0
2024-07-17 12:17:00-04:00,145.58999633789062,145.58999633789062,145.58999633789062,145.58999633789062,399,0.0,0.0
2024-07-17 12:18:00-04:00,145.64999389648438,145.64999389648438,145.64999389648438,145.64999389648438,514,0.0,0.0
2024-07-17 12:24:00-04:00,145.5500030517578,145.64500427246094,145.5399932861328,145.64500427246094,2402,0.0,0.0
2024-07-17 12:32:00-04:00,145.44000244140625,145.44000244140625,145.43499755859375,145.43499755859375,1216,0.0,0.0
2024-07-17 12:33:00-04:00,145.31500244140625,145.31500244140625,145.31500244140625,145.31500244140625,141,0.0,0.0
2024-07-17 12:35:00-04:00,145.2949981689453,145.2949981689453,145.2949981689453,145.2949981689453,347,0.0,0.0
2024-07-17 12:38:00-04:00,145.22999572753906,145.22999572753906,145.21499633789062,145.21499633789062,488,0.0,0.0
2024-07-17 12:39:00-04:00,145.2100067138672,145.2100067138672,145.2100067138672,145.2100067138672,313,0.0,0.0
2024-07-17 12:40:00-04:00,145.13499450683594,145.13499450683594,145.13499450683594,145.13499450683594,375,0.0,0.0
2024-07-17 12:42:00-04:00,145.0449981689453,145.125,144.99000549316406,145.125,6494,0.0,0.0
2024-07-17 12:44:00-04:00,145.05499267578125,145.0574951171875,145.05499267578125,145.05499267578125,866,0.0,0.0
2024-07-17 12:45:00-04:00,145.0500030517578,145.11000061035156,145.02499389648438,145.05999755859375,2459,0.0,0.0
2024-07-17 12:46:00-04:00,145.09500122070312,145.09500122070312,145.09500122070312,145.09500122070312,359,0.0,0.0
2024-07-17 12:47:00-04:00,145.11000061035156,145.11000061035156,145.11000061035156,145.11000061035156,1000,0.0,0.0
2024-07-17 12:51:00-04:00,144.97500610351562,144.97999572753906,144.97500610351562,144.97500610351562,346,0.0,0.0
2024-07-17 12:53:00-04:00,144.97000122070312,144.97999572753906,144.97000122070312,144.97500610351562,696,0.0,0.0
2024-07-17 12:54:00-04:00,144.99000549316406,145.13499450683594,144.97500610351562,145.13499450683594,2731,0.0,0.0
2024-07-17 12:55:00-04:00,145.13499450683594,145.13499450683594,145.13499450683594,145.13499450683594,305,0.0,0.0
2024-07-17 12:56:00-04:00,145.125,145.125,145.125,145.125,328,0.0,0.0
2024-07-17 12:58:00-04:00,145.13499450683594,145.25,145.13499450683594,145.14999389648438,1151,0.0,0.0
2024-07-17 13:01:00-04:00,145.22999572753906,145.22999572753906,145.22999572753906,145.22999572753906,171,0.0,0.0
2024-07-17 13:04:00-04:00,145.25999450683594,145.25999450683594,145.25999450683594,145.25999450683594,373,0.0,0.0
2024-07-17 13:05:00-04:00,145.25,145.26499938964844,145.25,145.25999450683594,978,0.0,0.0
2024-07-17 13:07:00-04:00,145.2899932861328,145.2899932861328,145.2899932861328,145.2899932861328,347,0.0,0.0
2024-07-17 13:10:00-04:00,145.30999755859375,145.30999755859375,145.30999755859375,145.30999755859375,849,0.0,0.0
2024-07-17 13:15:00-04:00,145.27499389648438,145.27499389648438,145.27499389648438,145.27499389648438,214,0.0,0.0
2024-07-17 13:16:00-04:00,145.11000061035156,145.13499450683594,145.11000061035156,145.13499450683594,1208,0.0,0.0
2024-07-17 13:20:00-04:00,145.1300048828125,145.1300048828125,145.1300048828125,145.1300048828125,552,0.0,0.0
2024-07-17 13:21:00-04:00,145.13999938964844,145.13999938964844,145.13999938964844,145.13999938964844,166,0.0,0.0
2024-07-17 13:23:00-04:00,145.13999938964844,145.13999938964844,145.13999938964844,145.13999938964844,728,0.0,0.0
2024-07-17 13:24:00-04:00,145.13999938964844,145.14999389648438,145.02999877929688,145.0449981689453,1896,0.0,0.0
2024-07-17 13:25:00-04:00,145.0399932861328,145.1300048828125,145.03500366210938,145.03500366210938,1891,0.0,0.0
2024-07-17 13:26:00-04:00,145.03500366210938,145.03500366210938,145.03500366210938,145.03500366210938,151,0.0,0.0
2024-07-17 13:29:00-04:00,145.07000732421875,145.1300048828125,145.0050048828125,145.1199951171875,2012,0.0,0.0
2024-07-17 13:32:00-04:00,145.1300048828125,145.1300048828125,145.1300048828125,145.1300048828125,1393,0.0,0.0
2024-07-17 13:36:00-04:00,145.02000427246094,145.06500244140625,145.02000427246094,145.02000427246094,696,0.0,0.0
2024-07-17 13:39:00-04:00,145.05999755859375,145.05999755859375,145.05999755859375,145.05999755859375,286,0.0,0.0
2024-07-17 13:44:00-04:00,145.05999755859375,145.05999755859375,145.05999755859375,145.05999755859375,121,0.0,0.0
2024-07-17 13:45:00-04:00,145.03500366210938,145.03500366210938,145.03500366210938,145.03500366210938,283,0.0,0.0
2024-07-17 13:47:00-04:00,145.01499938964844,145.01499938964844,145.01499938964844,145.01499938964844,505,0.0,0.0
2024-07-17 13:51:00-04:00,145.02999877929688,145.02999877929688,145.02999877929688,145.02999877929688,102,0.0,0.0
2024-07-17 13:52:00-04:00,145.02999877929688,145.02999877929688,145.02999877929688,145.02999877929688,546,0.0,0.0
2024-07-17 13:55:00-04:00,145.00999450683594,145.00999450683594,145.00999450683594,145.00999450683594,509,0.0,0.0
2024-07-17 13:58:00-04:00,145.00999450683594,145.00999450683594,145.00999450683594,145.00999450683594,192,0.0,0.0
2024-07-17 13:59:00-04:00,144.9600067138672,144.9600067138672,144.9600067138672,144.9600067138672,572,0.0,0.0
2024-07-17 14:01:00-04:00,144.9499969482422,144.9499969482422,144.9499969482422,144.9499969482422,364,0.0,0.0
2024-07-17 14:03:00-04:00,144.9600067138672,144.9600067138672,144.9600067138672,144.9600067138672,128,0.0,0.0
2024-07-17 14:05:00-04:00,144.92999267578125,144.92999267578125,144.9199981689453,144.9199981689453,511,0.0,0.0
2024-07-17 14:07:00-04:00,144.99000549316406,144.99000549316406,144.99000549316406,144.99000549316406,170,0.0,0.0
2024-07-17 14:09:00-04:00,144.92999267578125,144.92999267578125,144.92999267578125,144.92999267578125,286,0.0,0.0
2024-07-17 14:14:00-04:00,144.98500061035156,144.98500061035156,144.98500061035156,144.98500061035156,439,0.0,0.0
2024-07-17 14:16:00-04:00,144.9199981689453,144.9199981689453,144.9199981689453,144.9199981689453,109,0.0,0.0
2024-07-17 14:17:00-04:00,144.9199981689453,144.9199981689453,144.9199981689453,144.9199981689453,643,0.0,0.0
2024-07-17 14:18:00-04:00,144.9199981689453,144.9199981689453,144.9199981689453,144.9199981689453,491,0.0,0.0
2024-07-17 14:21:00-04:00,144.97500610351562,144.97500610351562,144.97500610351562,144.97500610351562,249,0.0,0.0
2024-07-17 14:23:00-04:00,144.97500610351562,144.97500610351562,144.97500610351562,144.97500610351562,292,0.0,0.0
2024-07-17 14:24:00-04:00,144.97500610351562,144.97500610351562,144.97500610351562,144.97500610351562,444,0.0,0.0
2024-07-17 14:26:00-04:00,144.97000122070312,145.02999877929688,144.97000122070312,145.01499938964844,5010,0.0,0.0
2024-07-17 14:27:00-04:00,145.01499938964844,145.05999755859375,145.01499938964844,145.05999755859375,957,0.0,0.0
2024-07-17 14:28:00-04:00,145.05999755859375,145.05999755859375,145.00999450683594,145.00999450683594,2012,0.0,0.0
2024-07-17 14:36:00-04:00,145.08999633789062,145.08999633789062,145.08999633789062,145.08999633789062,149,0.0,0.0
2024-07-17 14:37:00-04:00,144.99000549316406,144.99000549316406,144.99000549316406,144.99000549316406,387,0.0,0.0
2024-07-17 14:38:00-04:00,144.98500061035156,144.98500061035156,144.98500061035156,144.98500061035156,748,0.0,0.0
2024-07-17 14:40:00-04:00,144.97999572753906,144.97999572753906,144.94000244140625,144.9600067138672,1164,0.0,0.0
2024-07-17 14:42:00-04:00,144.98500061035156,144.99000549316406,144.98500061035156,144.99000549316406,540,0.0,0.0
2024-07-17 14:45:00-04:00,144.99000549316406,144.99000549316406,144.97000122070312,144.97000122070312,2101,0.0,0.0
2024-07-17 14:46:00-04:00,145.02000427246094,145.02000427246094,144.97000122070312,144.97000122070312,1581,0.0,0.0
2024-07-17 14:48:00-04:00,144.96499633789062,144.96499633789062,144.96499633789062,144.96499633789062,240,0.0,0.0
2024-07-17 14:49:00-04:00,144.9600067138672,144.9600067138672,144.9600067138672,144.9600067138672,188,0.0,0.0
2024-07-17 14:50:00-04:00,144.99000549316406,145.01499938964844,144.93499755859375,145.01499938964844,7142,0.0,0.0
2024-07-17 14:51:00-04:00,145.01499938964844,145.08999633789062,145.0050048828125,145.05999755859375,1339,0.0,0.0
2024-07-17 14:52:00-04:00,145.0800018310547,145.10499572753906,145.0800018310547,145.0850067138672,667,0.0,0.0
2024-07-17 14:54:00-04:00,145.09500122070312,145.09500122070312,145.09500122070312,145.09500122070312,718,0.0,0.0
2024-07-17 14:55:00-04:00,145.1199951171875,145.1199951171875,145.1199951171875,145.1199951171875,438,0.0,0.0
2024-07-17 14:56:00-04:00,145.10000610351562,145.10000610351562,145.10000610351562,145.10000610351562,296,0.0,0.0
2024-07-17 14:57:00-04:00,145.11500549316406,145.11500549316406,145.11500549316406,145.11500549316406,405,0.0,0.0
2024-07-17 15:00:00-04:00,145.10499572753906,145.1999969482422,145.10000610351562,145.10000610351562,2966,0.0,0.0
2024-07-17 15:07:00-04:00,145.1199951171875,145.1199951171875,145.1199951171875,145.1199951171875,923,0.0,0.0
2024-07-17 15:11:00-04:00,145.3000030517578,145.3000030517578,145.3000030517578,145.3000030517578,564,0.0,0.0
2024-07-17 15:14:00-04:00,145.4550018310547,145.4550018310547,145.4550018310547,145.4550018310547,269,0.0,0.0
2024-07-17 15:16:00-04:00,145.36000061035156,145.36000061035156,145.27000427246094,145.36000061035156,445,0.0,0.0
2024-07-17 15:17:00-04:00,145.36000061035156,145.36000061035156,145.36000061035156,145.36000061035156,1629,0.0,0.0
2024-07-17 15:21:00-04:00,145.22000122070312,145.22000122070312,145.22000122070312,145.22000122070312,369,0.0,0.0
2024-07-17 15:24:00-04:00,145.20249938964844,145.20249938964844,145.20249938964844,145.20249938964844,742,0.0,0.0
2024-07-17 15:27:00-04:00,145.25,145.25,145.25,145.25,1529,0.0,0.0
2024-07-17 15:30:00-04:00,145.22000122070312,145.22000122070312,145.1999969482422,145.1999969482422,429,0.0,0.0
2024-07-17 15:31:00-04:00,145.24000549316406,145.24000549316406,145.10000610351562,145.10000610351562,2527,0.0,0.0
2024-07-17 15:32:00-04:00,145.19000244140625,145.2100067138672,145.19000244140625,145.2100067138672,584,0.0,0.0
2024-07-17 15:36:00-04:00,145.25,145.30999755859375,145.25,145.30999755859375,1950,0.0,0.0
2024-07-17 15:37:00-04:00,145.33999633789062,145.33999633789062,145.33999633789062,145.33999633789062,993,0.0,0.0
2024-07-17 15:39:00-04:00,145.25,145.25,145.25,145.25,197,0.0,0.0
2024-07-17 15:40:00-04:00,145.22500610351562,145.22500610351562,145.22500610351562,145.22500610351562,522,0.0,0.0
2024-07-17 15:41:00-04:00,145.14999389648438,145.14999389648438,145.14999389648438,145.14999389648438,275,0.0,0.0
2024-07-17 15:42:00-04:00,145.19000244140625,145.19000244140625,145.1750030517578,145.1750030517578,1289,0.0,0.0
2024-07-17 15:43:00-04:00,145.19500732421875,145.19500732421875,145.19500732421875,145.19500732421875,495,0.0,0.0
2024-07-17 15:44:00-04:00,145.2050018310547,145.2050018310547,145.2050018310547,145.2050018310547,131,0.0,0.0
2024-07-17 15:45:00-04:00,145.18499755859375,145.18499755859375,145.18499755859375,145.18499755859375,613,0.0,0.0
2024-07-17 15:46:00-04:00,145.18499755859375,145.18499755859375,145.14999389648438,145.14999389648438,1771,0.0,0.0
2024-07-17 15:47:00-04:00,145.1199951171875,145.1199951171875,145.11000061035156,145.11000061035156,1065,0.0,0.0
2024-07-17 15:49:00-04:00,145.0500030517578,145.05999755859375,145.0399932861328,145.0399932861328,1365,0.0,0.0
2024-07-17 15:50:00-04:00,145.0373992919922,145.05999755859375,145.01260375976562,145.05999755859375,2937,0.0,0.0
2024-07-17 15:51:00-04:00,145.14999389648438,145.14999389648438,145.13499450683594,145.13499450683594,1268,0.0,0.0
2024-07-17 15:52:00-04:00,145.125,145.125,145.06500244140625,145.1199951171875,1527,0.0,0.0
2024-07-17 15:53:00-04:00,145.1199951171875,145.1199951171875,145.1199951171875,145.1199951171875,429,0.0,0.0
2024-07-17 15:54:00-04:00,145.1750030517578,145.1750030517578,145.0800018310547,145.08999633789062,2377,0.0,0.0
2024-07-17 15:55:00-04:00,144.94000244140625,145.02999877929688,144.91000366210938,145.02999877929688,4752,0.0,0.0
2024-07-17 15:56:00-04:00,145.0,145.07000732421875,145.0,145.07000732421875,2764,0.0,0.0
2024-07-17 15:57:00-04:00,145.07000732421875,145.07000732421875,144.9499969482422,144.98500061035156,2941,0.0,0.0
2024-07-17 15:58:00-04:00,144.9499969482422,144.97999572753906,144.8699951171875,144.91000366210938,2272,0.0,0.0
2024-07-17 15:59:00-04:00,144.91000366210938,144.9600067138672,144.80999755859375,144.88999938964844,11276,0.0,0.0
2024-07-18 09:30:00-04:00,144.61000061035156,144.61000061035156,144.61000061035156,144.61000061035156,2078,0.0,0.0
2024-07-18 09:35:00-04:00,145.47999572753906,145.47999572753906,145.23500061035156,145.23500061035156,209,0.0,0.0
2024-07-18 09:37:00-04:00,144.60499572753906,144.60499572753906,144.60499572753906,144.60499572753906,189,0.0,0.0
2024-07-18 09:41:00-04:00,145.44000244140625,145.44000244140625,145.44000244140625,145.44000244140625,130,0.0,0.0
2024-07-18 09:44:00-04:00,145.39999389648438,145.44000244140625,145.39999389648438,145.44000244140625,336,0.0,0.0
2024-07-18 09:46:00-04:00,145.35000610351562,145.35000610351562,145.35000610351562,145.35000610351562,326,0.0,0.0
2024-07-18 09:47:00-04:00,145.3350067138672,145.3350067138672,145.3350067138672,145.3350067138672,462,0.0,0.0
2024-07-18 09:51:00-04:00,145.4600067138672,145.4600067138672,145.4600067138672,145.4600067138672,1255,0.0,0.0
2024-07-18 09:52:00-04:00,145.42999267578125,145.47999572753906,145.42999267578125,145.47999572753906,1109,0.0,0.0
2024-07-18 10:00:00-04:00,145.85000610351562,145.85000610351562,145.85000610351562,145.85000610351562,212,0.0,0.0
2024-07-18 10:01:00-04:00,146.27999877929688,146.27999877929688,146.27999877929688,146.27999877929688,376,0.0,0.0
2024-07-18 10:06:00-04:00,146.1300048828125,146.1300048828125,146.1300048828125,146.1300048828125,205,0.0,0.0
2024-07-18 10:07:00-04:00,146.1199951171875,146.1199951171875,146.1199951171875,146.1199951171875,151,0.0,0.0
2024-07-18 10:08:00-04:00,145.97000122070312,145.97000122070312,145.97000122070312,145.97000122070312,374,0.0,0.0
2024-07-18 10:09:00-04:00,145.86000061035156,145.86000061035156,145.86000061035156,145.86000061035156,726,0.0,0.0
2024-07-18 10:13:00-04:00,145.76499938964844,145.76499938964844,145.76499938964844,145.76499938964844,269,0.0,0.0
2024-07-18 10:14:00-04:00,145.77000427246094,146.32000732421875,145.77000427246094,146.32000732421875,1484,0.0,0.0
2024-07-18 10:18:00-04:00,146.3300018310547,146.3300018310547,146.3300018310547,146.3300018310547,153,0.0,0.0
2024-07-18 10:20:00-04:00,146.4499969482422,146.4499969482422,146.4499969482422,146.4499969482422,221,0.0,0.0
2024-07-18 10:21:00-04:00,146.60000610351562,146.92999267578125,146.5800018310547,146.92999267578125,847,0.0,0.0
2024-07-18 10:22:00-04:00,147.0,147.0,146.9499969482422,146.9499969482422,448,0.0,0.0
2024-07-18 10:23:00-04:00,146.7050018310547,146.7050018310547,146.7050018310547,146.7050018310547,326,0.0,0.0
2024-07-18 10:25:00-04:00,146.7899932861328,146.9199981689453,146.7899932861328,146.9199981689453,388,0.0,0.0
2024-07-18 10:26:00-04:00,146.8699951171875,146.97999572753906,146.8699951171875,146.97999572753906,799,0.0,0.0
2024-07-18 10:27:00-04:00,146.77999877929688,146.8249969482422,146.77999877929688,146.8249969482422,1070,0.0,0.0
2024-07-18 10:33:00-04:00,146.72999572753906,146.99000549316406,146.66000366210938,146.99000549316406,2835,0.0,0.0
2024-07-18 10:34:00-04:00,146.75,146.75,146.72000122070312,146.72000122070312,734,0.0,0.0
2024-07-18 10:35:00-04:00,146.64999389648438,146.64999389648438,146.6300048828125,146.63999938964844,939,0.0,0.0
2024-07-18 10:36:00-04:00,146.72999572753906,146.72999572753906,146.72999572753906,146.72999572753906,1055,0.0,0.0
2024-07-18 10:37:00-04:00,146.6300048828125,146.6300048828125,146.6300048828125,146.6300048828125,240,0.0,0.0
2024-07-18 10:38:00-04:00,146.69000244140625,146.69000244140625,146.61000061035156,146.66250610351562,825,0.0,0.0
2024-07-18 10:41:00-04:00,146.57000732421875,146.57000732421875,146.57000732421875,146.57000732421875,517,0.0,0.0
2024-07-18 10:45:00-04:00,146.61000061035156,146.61000061035156,146.55999755859375,146.55999755859375,408,0.0,0.0
2024-07-18 10:46:00-04:00,146.5,146.5,146.5,146.5,107,0.0,0.0
2024-07-18 10:47:00-04:00,146.4949951171875,146.4949951171875,146.41000366210938,146.41000366210938,512,0.0,0.0
2024-07-18 10:48:00-04:00,146.46499633789062,146.46499633789062,146.38999938964844,146.46499633789062,857,0.0,0.0
2024-07-18 10:49:00-04:00,146.39500427246094,146.6999969482422,146.39500427246094,146.6999969482422,24598,0.0,0.0
2024-07-18 10:50:00-04:00,146.6699981689453,146.6699981689453,146.42999267578125,146.42999267578125,1834,0.0,0.0
2024-07-18 10:53:00-04:00,146.83470153808594,146.83470153808594,146.83470153808594,146.83470153808594,457,0.0,0.0
2024-07-18 10:54:00-04:00,147.0,147.0,147.0,147.0,451,0.0,0.0
2024-07-18 10:56:00-04:00,147.00999450683594,147.00999450683594,147.00999450683594,147.00999450683594,332,0.0,0.0
2024-07-18 10:57:00-04:00,146.86000061035156,146.96499633789062,146.86000061035156,146.91000366210938,747,0.0,0.0
2024-07-18 11:00:00-04:00,146.77999877929688,146.77999877929688,146.77999877929688,146.77999877929688,100,0.0,0.0
2024-07-18 11:01:00-04:00,146.82000732421875,146.82000732421875,146.72000122070312,146.72000122070312,1662,0.0,0.0
2024-07-18 11:11:00-04:00,146.81500244140625,146.81500244140625,146.81500244140625,146.81500244140625,202,0.0,0.0
2024-07-18 11:12:00-04:00,146.88999938964844,146.88999938964844,146.88999938964844,146.88999938964844,221,0.0,0.0
2024-07-18 11:13:00-04:00,146.89999389648438,146.94000244140625,146.89999389648438,146.91000366210938,1024,0.0,0.0
2024-07-18 11:14:00-04:00,147.02999877929688,147.02999877929688,146.9779052734375,146.9779052734375,598,0.0,0.0
2024-07-18 11:15:00-04:00,146.88999938964844,146.94500732421875,146.88999938964844,146.94500732421875,699,0.0,0.0
2024-07-18 11:16:00-04:00,146.89999389648438,146.90499877929688,146.8300018310547,146.8300018310547,1172,0.0,0.0
2024-07-18 11:17:00-04:00,146.72000122070312,146.72000122070312,146.72000122070312,146.72000122070312,435,0.0,0.0
2024-07-18 11:18:00-04:00,146.91000366210938,146.91000366210938,146.91000366210938,146.91000366210938,389,0.0,0.0
2024-07-18 11:19:00-04:00,146.82000732421875,146.89999389648438,146.82000732421875,146.89999389648438,483,0.0,0.0
2024-07-18 11:20:00-04:00,146.8800048828125,146.9600067138672,146.8800048828125,146.9600067138672,893,0.0,0.0
2024-07-18 11:22:00-04:00,146.94500732421875,146.94500732421875,146.94500732421875,146.94500732421875,120,0.0,0.0
2024-07-18 11:23:00-04:00,147.02000427246094,147.0500030517578,147.02000427246094,147.0500030517578,1066,0.0,0.0
2024-07-18 11:27:00-04:00,147.0800018310547,147.1699981689453,147.0800018310547,147.1699981689453,372,0.0,0.0
2024-07-18 11:28:00-04:00,147.2100067138672,147.2100067138672,147.2100067138672,147.2100067138672,898,0.0,0.0
2024-07-18 11:30:00-04:00,147.25,147.25,147.25,147.25,499,0.0,0.0
2024-07-18 11:32:00-04:00,147.10000610351562,147.14999389648438,147.10000610351562,147.1300048828125,710,0.0,0.0
2024-07-18 11:34:00-04:00,147.17999267578125,147.19000244140625,147.17999267578125,147.19000244140625,341,0.0,0.0
2024-07-18 11:35:00-04:00,147.13999938964844,147.13999938964844,147.03500366210938,147.03500366210938,1534,0.0,0.0
2024-07-18 11:36:00-04:00,147.1199951171875,147.1199951171875,147.1199951171875,147.1199951171875,100,0.0,0.0
2024-07-18 11:37:00-04:00,147.1199951171875,147.14999389648438,147.1199951171875,147.14999389648438,761,0.0,0.0
2024-07-18 11:38:00-04:00,147.14999389648438,147.14999389648438,147.0,147.0,1751,0.0,0.0
2024-07-18 11:41:00-04:00,147.00999450683594,147.00999450683594,147.00999450683594,147.00999450683594,586,0.0,0.0
2024-07-18 11:43:00-04:00,147.02999877929688,147.02999877929688,147.02999877929688,147.02999877929688,241,0.0,0.0
2024-07-18 11:46:00-04:00,147.0800018310547,147.0800018310547,147.0800018310547,147.0800018310547,145,0.0,0.0
2024-07-18 11:47:00-04:00,146.9600067138672,147.05499267578125,146.9499969482422,146.9499969482422,3031,0.0,0.0
2024-07-18 11:49:00-04:00,146.8800048828125,146.8800048828125,146.8800048828125,146.8800048828125,637,0.0,0.0
2024-07-18 11:51:00-04:00,146.8300018310547,146.8300018310547,146.8300018310547,146.8300018310547,982,0.0,0.0
2024-07-18 11:53:00-04:00,146.6300048828125,146.6300048828125,146.6300048828125,146.6300048828125,312,0.0,0.0
2024-07-18 12:00:00-04:00,146.60000610351562,146.61000061035156,146.60000610351562,146.61000061035156,273,0.0,0.0
2024-07-18 12:01:00-04:00,146.58999633789062,146.58999633789062,146.57249450683594,146.57249450683594,352,0.0,0.0
2024-07-18 12:02:00-04:00,146.53500366210938,146.5800018310547,146.53500366210938,146.5800018310547,2181,0.0,0.0
2024-07-18 12:03:00-04:00,146.6300048828125,146.69000244140625,146.6300048828125,146.69000244140625,1076,0.0,0.0
2024-07-18 12:05:00-04:00,146.6649932861328,146.6649932861328,146.6649932861328,146.6649932861328,170,0.0,0.0
2024-07-18 12:06:00-04:00,146.6649932861328,146.6649932861328,146.6649932861328,146.6649932861328,426,0.0,0.0
2024-07-18 12:10:00-04:00,146.72999572753906,146.72999572753906,146.72999572753906,146.72999572753906,103,0.0,0.0
2024-07-18 12:11:00-04:00,146.6300048828125,146.6699981689453,146.61000061035156,146.6699981689453,1253,0.0,0.0
2024-07-18 12:12:00-04:00,146.6649932861328,146.6649932861328,146.6649932861328,146.6649932861328,158,0.0,0.0
2024-07-18 12:13:00-04:00,146.6649932861328,146.72000122070312,146.6649932861328,146.72000122070312,309,0.0,0.0
2024-07-18 12:14:00-04:00,146.6649932861328,146.6649932861328,146.6649932861328,146.6649932861328,201,0.0,0.0
2024-07-18 12:15:00-04:00,146.61000061035156,146.6649932861328,146.61000061035156,146.61000061035156,1262,0.0,0.0
2024-07-18 12:16:00-04:00,146.6898956298828,146.6898956298828,146.5050048828125,146.5050048828125,1399,0.0,0.0
2024-07-18 12:17:00-04:00,146.44000244140625,146.44000244140625,146.33999633789062,146.38250732421875,834,0.0,0.0
2024-07-18 12:18:00-04:00,146.38499450683594,146.38499450683594,146.38499450683594,146.38499450683594,308,0.0,0.0
2024-07-18 12:21:00-04:00,146.375,146.375,146.375,146.375,182,0.0,0.0
2024-07-18 12:22:00-04:00,146.3699951171875,146.3699951171875,146.3699951171875,146.3699951171875,304,0.0,0.0
2024-07-18 12:24:00-04:00,146.30999755859375,146.3300018310547,146.30499267578125,146.30499267578125,650,0.0,0.0
2024-07-18 12:25:00-04:00,146.30999755859375,146.44000244140625,146.30999755859375,146.44000244140625,1938,0.0,0.0
2024-07-18 12:29:00-04:00,146.30999755859375,146.375,146.30999755859375,146.375,685,0.0,0.0
2024-07-18 12:30:00-04:00,146.30999755859375,146.30999755859375,146.30999755859375,146.30999755859375,544,0.0,0.0
2024-07-18 12:36:00-04:00,146.35000610351562,146.35000610351562,146.3000030517578,146.3000030517578,308,0.0,0.0
2024-07-18 12:37:00-04:00,146.28500366210938,146.28500366210938,146.28500366210938,146.28500366210938,434,0.0,0.0
2024-07-18 12:39:00-04:00,146.28500366210938,146.28500366210938,146.28500366210938,146.28500366210938,349,0.0,0.0
2024-07-18 12:40:00-04:00,146.3300018310547,146.35000610351562,146.2100067138672,146.2449951171875,1881,0.0,0.0
2024-07-18 12:45:00-04:00,146.27000427246094,146.2899932861328,146.27000427246094,146.2899932861328,1146,0.0,0.0
2024-07-18 12:48:00-04:00,146.3800048828125,146.3800048828125,146.3800048828125,146.3800048828125,503,0.0,0.0
2024-07-18 12:52:00-04:00,146.42999267578125,146.42999267578125,146.42999267578125,146.42999267578125,801,0.0,0.0
2024-07-18 12:58:00-04:00,146.3800048828125,146.47000122070312,146.3800048828125,146.47000122070312,1837,0.0,0.0
2024-07-18 12:59:00-04:00,146.5050048828125,146.52999877929688,146.3300018310547,146.41000366210938,5980,0.0,0.0
2024-07-18 13:05:00-04:00,146.3350067138672,146.4199981689453,146.3350067138672,146.4199981689453,882,0.0,0.0
2024-07-18 13:06:00-04:00,146.29190063476562,146.29190063476562,146.29190063476562,146.29190063476562,249,0.0,0.0
2024-07-18 13:09:00-04:00,146.36000061035156,146.36000061035156,146.36000061035156,146.36000061035156,238,0.0,0.0
2024-07-18 13:13:00-04:00,146.35000610351562,146.35000610351562,146.35000610351562,146.35000610351562,145,0.0,0.0
2024-07-18 13:15:00-04:00,146.39999389648438,146.39999389648438,146.39999389648438,146.39999389648438,309,0.0,0.0
2024-07-18 13:17:00-04:00,146.41000366210938,146.42999267578125,146.41000366210938,146.42999267578125,544,0.0,0.0
2024-07-18 13:21:00-04:00,146.40499877929688,146.41000366210938,146.40249633789062,146.41000366210938,692,0.0,0.0
2024-07-18 13:22:00-04:00,146.3800048828125,146.4250030517578,146.2100067138672,146.26499938964844,3947,0.0,0.0
2024-07-18 13:31:00-04:00,146.25999450683594,146.25999450683594,146.25999450683594,146.25999450683594,310,0.0,0.0
2024-07-18 13:32:00-04:00,146.2899932861328,146.3000030517578,146.2899932861328,146.3000030517578,359,0.0,0.0
2024-07-18 13:34:00-04:00,146.23500061035156,146.23500061035156,146.23500061035156,146.23500061035156,167,0.0,0.0
2024-07-18 13:35:00-04:00,146.30999755859375,146.30999755859375,146.30999755859375,146.30999755859375,458,0.0,0.0
2024-07-18 13:39:00-04:00,146.35000610351562,146.35000610351562,146.32000732421875,146.32000732421875,321,0.0,0.0
2024-07-18 13:40:00-04:00,146.27000427246094,146.27000427246094,146.27000427246094,146.27000427246094,802,0.0,0.0
2024-07-18 13:46:00-04:00,146.3800048828125,146.39999389648438,146.36000061035156,146.39999389648438,2117,0.0,0.0
2024-07-18 13:49:00-04:00,146.38999938964844,146.38999938964844,146.33999633789062,146.38999938964844,2743,0.0,0.0
2024-07-18 13:51:00-04:00,146.3699951171875,146.3699951171875,146.32000732421875,146.32000732421875,810,0.0,0.0
2024-07-18 13:52:00-04:00,146.27999877929688,146.27999877929688,146.27999877929688,146.27999877929688,297,0.0,0.0
2024-07-18 13:54:00-04:00,146.30499267578125,146.30499267578125,146.28500366210938,146.28500366210938,1039,0.0,0.0
2024-07-18 13:56:00-04:00,146.22999572753906,146.22999572753906,146.22999572753906,146.22999572753906,520,0.0,0.0
2024-07-18 13:57:00-04:00,146.15499877929688,146.15499877929688,146.15499877929688,146.15499877929688,136,0.0,0.0
2024-07-18 13:58:00-04:00,146.17999267578125,146.26499938964844,146.17999267578125,146.26499938964844,1671,0.0,0.0
2024-07-18 13:59:00-04:00,146.25999450683594,146.25999450683594,146.25999450683594,146.25999450683594,231,0.0,0.0
2024-07-18 14:00:00-04:00,146.25999450683594,146.25999450683594,146.25999450683594,146.25999450683594,235,0.0,0.0
2024-07-18 14:01:00-04:00,146.25999450683594,146.25999450683594,146.25999450683594,146.25999450683594,204,0.0,0.0
2024-07-18 14:03:00-04:00,146.1999969482422,146.2274932861328,146.1999969482422,146.2274932861328,335,0.0,0.0
2024-07-18 14:05:00-04:00,146.19000244140625,146.23500061035156,146.14999389648438,146.1750030517578,1127,0.0,0.0
2024-07-18 14:06:00-04:00,146.1699981689453,146.1699981689453,146.1699981689453,146.1699981689453,298,0.0,0.0
2024-07-18 14:08:00-04:00,146.15499877929688,146.15499877929688,146.15499877929688,146.15499877929688,338,0.0,0.0
2024-07-18 14:10:00-04:00,146.17990112304688,146.17990112304688,146.17990112304688,146.17990112304688,625,0.0,0.0
2024-07-18 14:11:00-04:00,146.10000610351562,146.13999938964844,146.10000610351562,146.13999938964844,1016,0.0,0.0
2024-07-18 14:13:00-04:00,146.14999389648438,146.14999389648438,146.14999389648438,146.14999389648438,154,0.0,0.0
2024-07-18 14:14:00-04:00,146.09060668945312,146.1699981689453,146.09060668945312,146.1699981689453,643,0.0,0.0
2024-07-18 14:16:00-04:00,146.125,146.125,146.125,146.125,941,0.0,0.0
2024-07-18 14:19:00-04:00,146.1199951171875,146.1199951171875,146.0399932861328,146.10000610351562,2431,0.0,0.0
2024-07-18 14:20:00-04:00,146.10000610351562,146.10000610351562,146.10000610351562,146.10000610351562,265,0.0,0.0
2024-07-18 14:22:00-04:00,146.16000366210938,146.16000366210938,146.16000366210938,146.16000366210938,1068,0.0,0.0
2024-07-18 14:26:00-04:00,146.19000244140625,146.19000244140625,146.19000244140625,146.19000244140625,279,0.0,0.0
2024-07-18 14:29:00-04:00,146.10000610351562,146.10000610351562,146.10000610351562,146.10000610351562,160,0.0,0.0
2024-07-18 14:30:00-04:00,146.14500427246094,146.14500427246094,146.0500030517578,146.07749938964844,2348,0.0,0.0
2024-07-18 14:31:00-04:00,146.1425018310547,146.1425018310547,146.1300048828125,146.1300048828125,613,0.0,0.0
2024-07-18 14:34:00-04:00,146.1199951171875,146.1199951171875,146.1199951171875,146.1199951171875,462,0.0,0.0
2024-07-18 14:38:00-04:00,146.05999755859375,146.05999755859375,146.02499389648438,146.02499389648438,791,0.0,0.0
2024-07-18 14:39:00-04:00,146.01499938964844,146.01499938964844,146.01499938964844,146.01499938964844,293,0.0,0.0
2024-07-18 14:40:00-04:00,146.01499938964844,146.01499938964844,146.01499938964844,146.01499938964844,251,0.0,0.0
2024-07-18 14:41:00-04:00,146.01499938964844,146.01499938964844,146.01499938964844,146.01499938964844,232,0.0,0.0
2024-07-18 14:42:00-04:00,146.01499938964844,146.01499938964844,146.01499938964844,146.01499938964844,118,0.0,0.0
2024-07-18 14:43:00-04:00,146.00999450683594,146.00999450683594,146.00999450683594,146.00999450683594,663,0.0,0.0
2024-07-18 14:44:00-04:00,146.00999450683594,146.00999450683594,146.00999450683594,146.00999450683594,522,0.0,0.0
2024-07-18 14:45:00-04:00,146.00999450683594,146.00999450683594,146.00999450683594,146.00999450683594,1192,0.0,0.0
2024-07-18 14:46:00-04:00,146.00999450683594,146.00999450683594,146.00999450683594,146.00999450683594,715,0.0,0.0
2024-07-18 14:49:00-04:00,146.00999450683594,146.00999450683594,145.97500610351562,145.97500610351562,1078,0.0,0.0
2024-07-18 14:50:00-04:00,145.97500610351562,145.97500610351562,145.97500610351562,145.97500610351562,650,0.0,0.0
2024-07-18 14:51:00-04:00,145.92999267578125,146.00999450683594,145.92999267578125,146.00999450683594,1071,0.0,0.0
2024-07-18 14:52:00-04:00,145.92999267578125,145.92999267578125,145.86000061035156,145.89999389648438,2597,0.0,0.0
2024-07-18 14:54:00-04:00,145.99000549316406,145.99000549316406,145.99000549316406,145.99000549316406,822,0.0,0.0
2024-07-18 14:55:00-04:00,146.0500030517578,146.0500030517578,146.0500030517578,146.0500030517578,316,0.0,0.0
2024-07-18 14:56:00-04:00,146.05999755859375,146.05999755859375,146.05999755859375,146.05999755859375,269,0.0,0.0
2024-07-18 14:58:00-04:00,146.10000610351562,146.10000610351562,146.10000610351562,146.10000610351562,377,0.0,0.0
2024-07-18 15:00:00-04:00,146.0800018310547,146.0800018310547,146.0800018310547,146.0800018310547,163,0.0,0.0
2024-07-18 15:01:00-04:00,146.13999938964844,146.25,146.13999938964844,146.25,960,0.0,0.0
2024-07-18 15:04:00-04:00,146.19500732421875,146.22500610351562,146.19000244140625,146.22500610351562,1870,0.0,0.0
2024-07-18 15:06:00-04:00,146.31500244140625,146.31500244140625,146.19000244140625,146.1999969482422,4520,0.0,0.0
2024-07-18 15:07:00-04:00,146.29989624023438,146.29989624023438,146.1300048828125,146.19000244140625,1907,0.0,0.0
2024-07-18 15:08:00-04:00,146.15499877929688,146.15499877929688,146.15499877929688,146.15499877929688,244,0.0,0.0
2024-07-18 15:10:00-04:00,146.15499877929688,146.15499877929688,146.0500030517578,146.0500030517578,989,0.0,0.0
2024-07-18 15:12:00-04:00,145.97000122070312,145.97000122070312,145.94000244140625,145.97000122070312,880,0.0,0.0
2024-07-18 15:16:00-04:00,146.02000427246094,146.05999755859375,146.02000427246094,146.05999755859375,1024,0.0,0.0
2024-07-18 15:18:00-04:00,146.0500030517578,146.0500030517578,146.0500030517578,146.0500030517578,412,0.0,0.0
2024-07-18 15:19:00-04:00,145.97500610351562,145.97500610351562,145.94000244140625,145.94000244140625,1126,0.0,0.0
2024-07-18 15:20:00-04:00,145.94000244140625,145.96499633789062,145.88499450683594,145.88499450683594,1696,0.0,0.0
2024-07-18 15:23:00-04:00,145.8300018310547,145.8300018310547,145.7899932861328,145.8300018310547,2017,0.0,0.0
2024-07-18 15:24:00-04:00,145.7949981689453,145.7949981689453,145.7949981689453,145.7949981689453,996,0.0,0.0
2024-07-18 15:25:00-04:00,145.83999633789062,145.83999633789062,145.83999633789062,145.83999633789062,726,0.0,0.0
2024-07-18 15:26:00-04:00,145.8699951171875,145.97999572753906,145.8699951171875,145.97999572753906,1594,0.0,0.0
2024-07-18 15:27:00-04:00,146.0800018310547,146.0800018310547,146.0800018310547,146.0800018310547,867,0.0,0.0
2024-07-18 15:30:00-04:00,146.13999938964844,146.13999938964844,146.10000610351562,146.10000610351562,3183,0.0,0.0
2024-07-18 15:33:00-04:00,146.05999755859375,146.05999755859375,146.05999755859375,146.05999755859375,1093,0.0,0.0
2024-07-18 15:34:00-04:00,146.05999755859375,146.05999755859375,146.05499267578125,146.05999755859375,450,0.0,0.0
2024-07-18 15:35:00-04:00,146.07000732421875,146.0800018310547,146.07000732421875,146.07000732421875,943,0.0,0.0
2024-07-18 15:36:00-04:00,146.1300048828125,146.1300048828125,146.1300048828125,146.1300048828125,428,0.0,0.0
2024-07-18 15:37:00-04:00,146.10000610351562,146.1300048828125,146.0850067138672,146.0850067138672,1687,0.0,0.0
2024-07-18 15:40:00-04:00,146.1300048828125,146.1300048828125,146.1300048828125,146.1300048828125,460,0.0,0.0
2024-07-18 15:41:00-04:00,146.1199951171875,146.125,146.08999633789062,146.08999633789062,2942,0.0,0.0
2024-07-18 15:43:00-04:00,146.0800018310547,146.11000061035156,146.0800018310547,146.11000061035156,1199,0.0,0.0
2024-07-18 15:44:00-04:00,146.11000061035156,146.11000061035156,146.11000061035156,146.11000061035156,442,0.0,0.0
2024-07-18 15:45:00-04:00,146.10000610351562,146.19000244140625,146.10000610351562,146.18499755859375,2579,0.0,0.0
2024-07-18 15:46:00-04:00,146.19000244140625,146.19000244140625,146.18499755859375,146.18499755859375,791,0.0,0.0
2024-07-18 15:47:00-04:00,146.1300048828125,146.1300048828125,146.1300048828125,146.1300048828125,1243,0.0,0.0
2024-07-18 15:48:00-04:00,146.14999389648438,146.1999969482422,146.14999389648438,146.1999969482422,2298,0.0,0.0
2024-07-18 15:49:00-04:00,146.25,146.2899932861328,146.25,146.2899932861328,1303,0.0,0.0
2024-07-18 15:50:00-04:00,146.41000366210938,146.51499938964844,146.3699951171875,146.51499938964844,3892,0.0,0.0
2024-07-18 15:51:00-04:00,146.47000122070312,146.47000122070312,146.3800048828125,146.39999389648438,3391,0.0,0.0
2024-07-18 15:52:00-04:00,146.3699951171875,146.42999267578125,146.3699951171875,146.42999267578125,1735,0.0,0.0
2024-07-18 15:53:00-04:00,146.39500427246094,146.39999389648438,146.27999877929688,146.27999877929688,4922,0.0,0.0
2024-07-18 15:54:00-04:00,146.2949981689453,146.2949981689453,146.27999877929688,146.27999877929688,1342,0.0,0.0
2024-07-18 15:55:00-04:00,146.19000244140625,146.41000366210938,146.17999267578125,146.39999389648438,7270,0.0,0.0
2024-07-18 15:56:00-04:00,146.3699951171875,146.4199981689453,146.3699951171875,146.41000366210938,6815,0.0,0.0
2024-07-18 15:57:00-04:00,146.33999633789062,146.33999633789062,146.25999450683594,146.25999450683594,3195,0.0,0.0
2024-07-18 15:58:00-04:00,146.27000427246094,146.33999633789062,146.25,146.32000732421875,7042,0.0,0.0
2024-07-18 15:59:00-04:00,146.35000610351562,146.49000549316406,146.30999755859375,146.30999755859375,23246,0.0,0.0
2024-07-19 09:30:00-04:00,146.58999633789062,146.58999633789062,146.58999633789062,146.58999633789062,2399,0.0,0.0
2024-07-19 09:38:00-04:00,145.83999633789062,145.83999633789062,145.83999633789062,145.83999633789062,274,0.0,0.0
2024-07-19 09:39:00-04:00,146.0749969482422,146.0749969482422,146.0749969482422,146.0749969482422,299,0.0,0.0
2024-07-19 09:47:00-04:00,145.9949951171875,145.9949951171875,145.9949951171875,145.9949951171875,310,0.0,0.0
2024-07-19 09:53:00-04:00,144.8800048828125,145.36000061035156,144.8800048828125,144.8800048828125,939,0.0,0.0
2024-07-19 09:54:00-04:00,144.65499877929688,144.65499877929688,144.65499877929688,144.65499877929688,655,0.0,0.0
2024-07-19 09:56:00-04:00,144.9499969482422,144.9499969482422,144.9499969482422,144.9499969482422,1329,0.0,0.0
2024-07-19 10:03:00-04:00,145.48989868164062,145.48989868164062,145.48989868164062,145.48989868164062,194,0.0,0.0
2024-07-19 10:05:00-04:00,145.25999450683594,145.25999450683594,145.25999450683594,145.25999450683594,354,0.0,0.0
2024-07-19 10:12:00-04:00,145.47999572753906,145.6300048828125,145.47999572753906,145.6300048828125,1230,0.0,0.0
2024-07-19 10:13:00-04:00,145.86000061035156,145.86000061035156,145.86000061035156,145.86000061035156,265,0.0,0.0
2024-07-19 10:15:00-04:00,145.58999633789062,145.58999633789062,145.58999633789062,145.58999633789062,1821,0.0,0.0
2024-07-19 10:19:00-04:00,145.91000366210938,145.91000366210938,145.82000732421875,145.8699951171875,605,0.0,0.0
2024-07-19 10:22:00-04:00,145.81500244140625,145.81500244140625,145.81500244140625,145.81500244140625,137,0.0,0.0
2024-07-19 10:23:00-04:00,145.81500244140625,145.81500244140625,145.81500244140625,145.81500244140625,296,0.0,0.0
2024-07-19 10:24:00-04:00,145.75999450683594,145.75999450683594,145.75999450683594,145.75999450683594,708,0.0,0.0
2024-07-19 10:31:00-04:00,145.64999389648438,145.6699981689453,145.5,145.625,1452,0.0,0.0
2024-07-19 10:34:00-04:00,145.7100067138672,145.7100067138672,145.6300048828125,145.6300048828125,440,0.0,0.0
2024-07-19 10:38:00-04:00,145.67999267578125,145.74000549316406,145.67999267578125,145.74000549316406,522,0.0,0.0
2024-07-19 10:44:00-04:00,145.58999633789062,145.58999633789062,145.58999633789062,145.58999633789062,127,0.0,0.0
2024-07-19 10:46:00-04:00,145.39999389648438,145.39999389648438,145.38499450683594,145.38499450683594,1444,0.0,0.0
2024-07-19 10:49:00-04:00,145.22000122070312,145.22000122070312,145.22000122070312,145.22000122070312,656,0.0,0.0
2024-07-19 10:52:00-04:00,145.0050048828125,145.08999633789062,145.0050048828125,145.0050048828125,514,0.0,0.0
2024-07-19 10:54:00-04:00,145.00999450683594,145.00999450683594,145.00999450683594,145.00999450683594,148,0.0,0.0
2024-07-19 10:55:00-04:00,144.8699951171875,144.8699951171875,144.8699951171875,144.8699951171875,688,0.0,0.0
2024-07-19 11:02:00-04:00,144.85000610351562,144.85000610351562,144.72000122070312,144.72000122070312,546,0.0,0.0
2024-07-19 11:04:00-04:00,144.82000732421875,144.82000732421875,144.82000732421875,144.82000732421875,139,0.0,0.0
2024-07-19 11:05:00-04:00,144.8350067138672,144.8350067138672,144.8350067138672,144.8350067138672,413,0.0,0.0
2024-07-19 11:12:00-04:00,144.82000732421875,144.82000732421875,144.82000732421875,144.82000732421875,562,0.0,0.0
2024-07-19 11:18:00-04:00,144.94000244140625,144.9499969482422,144.94000244140625,144.9499969482422,512,0.0,0.0
2024-07-19 11:19:00-04:00,145.0,145.0800018310547,145.0,145.0800018310547,715,0.0,0.0
2024-07-19 11:20:00-04:00,145.09500122070312,145.09500122070312,145.09500122070312,145.09500122070312,106,0.0,0.0
2024-07-19 11:21:00-04:00,145.09500122070312,145.09500122070312,145.09500122070312,145.09500122070312,119,0.0,0.0
2024-07-19 11:23:00-04:00,145.10000610351562,145.10000610351562,145.10000610351562,145.10000610351562,528,0.0,0.0
2024-07-19 11:27:00-04:00,145.0800018310547,145.0800018310547,145.0800018310547,145.0800018310547,129,0.0,0.0
2024-07-19 11:28:00-04:00,145.07000732421875,145.07000732421875,145.07000732421875,145.07000732421875,151,0.0,0.0
2024-07-19 11:30:00-04:00,145.06500244140625,145.06500244140625,145.06500244140625,145.06500244140625,282,0.0,0.0
2024-07-19 11:31:00-04:00,144.91000366210938,144.91000366210938,144.91000366210938,144.91000366210938,695,0.0,0.0
2024-07-19 11:33:00-04:00,145.19000244140625,145.22999572753906,145.19000244140625,145.22000122070312,447,0.0,0.0
2024-07-19 11:35:00-04:00,145.30999755859375,145.30999755859375,145.30999755859375,145.30999755859375,164,0.0,0.0
2024-07-19 11:36:00-04:00,145.18499755859375,145.18499755859375,145.18499755859375,145.18499755859375,709,0.0,0.0
2024-07-19 11:38:00-04:00,145.05999755859375,145.10499572753906,145.02999877929688,145.10499572753906,836,0.0,0.0
2024-07-19 11:39:00-04:00,145.17999267578125,145.17999267578125,145.11000061035156,145.11000061035156,398,0.0,0.0
2024-07-19 11:43:00-04:00,145.11000061035156,145.11000061035156,145.11000061035156,145.11000061035156,328,0.0,0.0
2024-07-19 11:46:00-04:00,145.0850067138672,145.0850067138672,145.0850067138672,145.0850067138672,289,0.0,0.0
2024-07-19 11:47:00-04:00,145.2100067138672,145.2100067138672,145.2100067138672,145.2100067138672,349,0.0,0.0
2024-07-19 11:49:00-04:00,145.22000122070312,145.22000122070312,145.22000122070312,145.22000122070312,182,0.0,0.0
2024-07-19 11:50:00-04:00,145.22000122070312,145.22000122070312,145.15499877929688,145.15499877929688,939,0.0,0.0
2024-07-19 11:51:00-04:00,145.1199951171875,145.1199951171875,145.1199951171875,145.1199951171875,331,0.0,0.0
2024-07-19 11:52:00-04:00,145.1199951171875,145.1199951171875,145.1199951171875,145.1199951171875,306,0.0,0.0
2024-07-19 11:53:00-04:00,145.1199951171875,145.1199951171875,145.1199951171875,145.1199951171875,246,0.0,0.0
2024-07-19 11:55:00-04:00,144.99000549316406,144.99000549316406,144.9499969482422,144.97999572753906,1563,0.0,0.0
2024-07-19 11:59:00-04:00,145.1300048828125,145.1300048828125,145.0850067138672,145.0850067138672,2538,0.0,0.0
2024-07-19 12:00:00-04:00,145.33999633789062,145.33999633789062,145.33999633789062,145.33999633789062,1181,0.0,0.0
2024-07-19 12:04:00-04:00,145.4199981689453,145.4199981689453,145.4199981689453,145.4199981689453,558,0.0,0.0
2024-07-19 12:09:00-04:00,145.5399932861328,145.66000366210938,145.5399932861328,145.6199951171875,1715,0.0,0.0
2024-07-19 12:10:00-04:00,145.6300048828125,145.6300048828125,145.6300048828125,145.6300048828125,449,0.0,0.0
2024-07-19 12:11:00-04:00,145.60499572753906,145.60499572753906,145.60499572753906,145.60499572753906,260,0.0,0.0
2024-07-19 12:12:00-04:00,145.4600067138672,145.49000549316406,145.44000244140625,145.49000549316406,1335,0.0,0.0
2024-07-19 12:13:00-04:00,145.4199981689453,145.4199981689453,145.36000061035156,145.36000061035156,1622,0.0,0.0
2024-07-19 12:14:00-04:00,145.41000366210938,145.4217987060547,145.33999633789062,145.33999633789062,2754,0.0,0.0
2024-07-19 12:15:00-04:00,145.4250030517578,145.5800018310547,145.4250030517578,145.5500030517578,2549,0.0,0.0
2024-07-19 12:16:00-04:00,145.61000061035156,145.61000061035156,145.61000061035156,145.61000061035156,279,0.0,0.0
2024-07-19 12:17:00-04:00,145.58999633789062,145.58999633789062,145.5399932861328,145.5399932861328,1685,0.0,0.0
2024-07-19 12:18:00-04:00,145.50999450683594,145.52499389648438,145.38999938964844,145.38999938964844,1026,0.0,0.0
2024-07-19 12:19:00-04:00,145.30999755859375,145.30999755859375,145.30999755859375,145.30999755859375,249,0.0,0.0
2024-07-19 12:20:00-04:00,145.26499938964844,145.26499938964844,145.26499938964844,145.26499938964844,1136,0.0,0.0
2024-07-19 12:24:00-04:00,145.31500244140625,145.31500244140625,145.31500244140625,145.31500244140625,222,0.0,0.0
2024-07-19 12:26:00-04:00,145.31500244140625,145.31500244140625,145.31500244140625,145.31500244140625,232,0.0,0.0
2024-07-19 12:27:00-04:00,145.2550048828125,145.3300018310547,145.25250244140625,145.25999450683594,3726,0.0,0.0
2024-07-19 12:28:00-04:00,145.25,145.25,145.25,145.25,484,0.0,0.0
2024-07-19 12:29:00-04:00,145.22500610351562,145.22500610351562,145.22500610351562,145.22500610351562,233,0.0,0.0
2024-07-19 12:30:00-04:00,145.27999877929688,145.27999877929688,145.27999877929688,145.27999877929688,949,0.0,0.0
2024-07-19 12:31:00-04:00,145.24000549316406,145.25660705566406,145.22000122070312,145.22000122070312,1266,0.0,0.0
2024-07-19 12:32:00-04:00,145.17999267578125,145.17999267578125,145.00999450683594,145.00999450683594,4138,0.0,0.0
2024-07-19 12:33:00-04:00,145.0399932861328,145.1300048828125,145.0399932861328,145.1300048828125,2910,0.0,0.0
2024-07-19 12:35:00-04:00,145.0399932861328,145.24000549316406,145.0399932861328,145.21499633789062,3682,0.0,0.0
2024-07-19 12:36:00-04:00,145.22000122070312,145.2899932861328,145.13999938964844,145.2899932861328,2845,0.0,0.0
2024-07-19 12:37:00-04:00,145.1999969482422,145.3000030517578,145.1999969482422,145.3000030517578,2047,0.0,0.0
2024-07-19 12:38:00-04:00,145.2100067138672,145.2100067138672,145.1999969482422,145.1999969482422,1095,0.0,0.0
2024-07-19 12:43:00-04:00,145.3000030517578,145.3000030517578,145.17999267578125,145.27999877929688,5013,0.0,0.0
2024-07-19 12:44:00-04:00,145.27000427246094,145.27000427246094,145.27000427246094,145.27000427246094,316,0.0,0.0
2024-07-19 12:46:00-04:00,145.27499389648438,145.27499389648438,145.27499389648438,145.27499389648438,315,0.0,0.0
2024-07-19 12:48:00-04:00,145.27000427246094,145.27000427246094,145.27000427246094,145.27000427246094,533,0.0,0.0
2024-07-19 12:49:00-04:00,145.30499267578125,145.30499267578125,145.17999267578125,145.17999267578125,2772,0.0,0.0
2024-07-19 12:50:00-04:00,145.17999267578125,145.32000732421875,145.17999267578125,145.25999450683594,2933,0.0,0.0
2024-07-19 12:51:00-04:00,145.23500061035156,145.2364044189453,145.23500061035156,145.2364044189453,2698,0.0,0.0
2024-07-19 12:52:00-04:00,145.22500610351562,145.24000549316406,145.22500610351562,145.22900390625,2137,0.0,0.0
2024-07-19 12:53:00-04:00,145.2899932861328,145.32000732421875,145.2100067138672,145.27000427246094,4193,0.0,0.0
2024-07-19 12:55:00-04:00,145.27000427246094,145.27000427246094,145.27000427246094,145.27000427246094,463,0.0,0.0
2024-07-19 12:56:00-04:00,145.27000427246094,145.27000427246094,145.1199951171875,145.17999267578125,3312,0.0,0.0
2024-07-19 12:58:00-04:00,145.14999389648438,145.19000244140625,145.14999389648438,145.19000244140625,757,0.0,0.0
2024-07-19 12:59:00-04:00,145.13999938964844,145.13999938964844,145.13999938964844,145.13999938964844,1126,0.0,0.0
2024-07-19 13:04:00-04:00,145.1999969482422,145.1999969482422,145.13999938964844,145.14999389648438,2294,0.0,0.0
2024-07-19 13:05:00-04:00,145.17999267578125,145.17999267578125,145.17999267578125,145.17999267578125,714,0.0,0.0
2024-07-19 13:10:00-04:00,145.2050018310547,145.2050018310547,145.2050018310547,145.2050018310547,626,0.0,0.0
2024-07-19 13:11:00-04:00,145.125,145.125,145.05999755859375,145.07000732421875,2439,0.0,0.0
2024-07-19 13:12:00-04:00,145.0050048828125,145.10000610351562,145.00010681152344,145.00010681152344,1686,0.0,0.0
2024-07-19 13:13:00-04:00,145.0500030517578,145.16000366210938,145.0,145.16000366210938,2783,0.0,0.0
2024-07-19 13:15:00-04:00,145.24000549316406,145.30499267578125,145.2100067138672,145.2100067138672,1527,0.0,0.0
2024-07-19 13:16:00-04:00,145.4199981689453,145.4199981689453,145.32000732421875,145.32000732421875,1174,0.0,0.0
2024-07-19 13:21:00-04:00,145.42999267578125,145.42999267578125,145.42999267578125,145.42999267578125,371,0.0,0.0
2024-07-19 13:24:00-04:00,145.5,145.5,145.44000244140625,145.44000244140625,834,0.0,0.0
2024-07-19 13:27:00-04:00,145.5,145.5,145.44000244140625,145.44000244140625,354,0.0,0.0
2024-07-19 13:28:00-04:00,145.4600067138672,145.4600067138672,145.4600067138672,145.4600067138672,321,0.0,0.0
2024-07-19 13:31:00-04:00,145.44000244140625,145.44000244140625,145.44000244140625,145.44000244140625,1484,0.0,0.0
2024-07-19 13:34:00-04:00,145.52999877929688,145.5500030517578,145.52999877929688,145.5500030517578,593,0.0,0.0
2024-07-19 13:36:00-04:00,145.47999572753906,145.64999389648438,145.47999572753906,145.64999389648438,849,0.0,0.0
2024-07-19 13:37:00-04:00,145.64999389648438,145.64999389648438,145.64999389648438,145.64999389648438,339,0.0,0.0
2024-07-19 13:38:00-04:00,145.64999389648438,145.64999389648438,145.47000122070312,145.47000122070312,443,0.0,0.0
2024-07-19 13:40:00-04:00,145.67999267578125,145.67999267578125,145.67999267578125,145.67999267578125,287,0.0,0.0
2024-07-19 13:42:00-04:00,145.66000366210938,145.66000366210938,145.66000366210938,145.66000366210938,766,0.0,0.0
2024-07-19 13:43:00-04:00,145.47000122070312,145.55999755859375,145.47000122070312,145.47000122070312,1486,0.0,0.0
2024-07-19 13:46:00-04:00,145.58999633789062,145.58999633789062,145.58999633789062,145.58999633789062,426,0.0,0.0
2024-07-19 13:47:00-04:00,145.73699951171875,145.73699951171875,145.73699951171875,145.73699951171875,832,0.0,0.0
2024-07-19 13:50:00-04:00,145.74000549316406,145.74000549316406,145.74000549316406,145.74000549316406,1474,0.0,0.0
2024-07-19 13:56:00-04:00,145.88999938964844,145.88999938964844,145.88999938964844,145.88999938964844,653,0.0,0.0
2024-07-19 14:01:00-04:00,145.9199981689453,145.9199981689453,145.9199981689453,145.9199981689453,438,0.0,0.0
2024-07-19 14:02:00-04:00,145.9199981689453,145.9199981689453,145.9199981689453,145.9199981689453,705,0.0,0.0
2024-07-19 14:04:00-04:00,145.74000549316406,145.77000427246094,145.74000549316406,145.76499938964844,1629,0.0,0.0
2024-07-19 14:10:00-04:00,145.7449951171875,145.7449951171875,145.66000366210938,145.66000366210938,689,0.0,0.0
2024-07-19 14:12:00-04:00,145.6999969482422,145.6999969482422,145.6999969482422,145.6999969482422,477,0.0,0.0
2024-07-19 14:15:00-04:00,145.6999969482422,145.6999969482422,145.6999969482422,145.6999969482422,1011,0.0,0.0
2024-07-19 14:24:00-04:00,145.6699981689453,145.6699981689453,145.6300048828125,145.6300048828125,571,0.0,0.0
2024-07-19 14:25:00-04:00,145.6300048828125,145.6300048828125,145.57000732421875,145.57000732421875,1326,0.0,0.0
2024-07-19 14:29:00-04:00,145.57000732421875,145.6125030517578,145.55999755859375,145.6125030517578,1011,0.0,0.0
2024-07-19 14:30:00-04:00,145.6300048828125,145.6300048828125,145.50999450683594,145.50999450683594,1810,0.0,0.0
2024-07-19 14:31:00-04:00,145.4600067138672,145.4600067138672,145.4600067138672,145.4600067138672,199,0.0,0.0
2024-07-19 14:32:00-04:00,145.52000427246094,145.52000427246094,145.52000427246094,145.52000427246094,258,0.0,0.0
2024-07-19 14:33:00-04:00,145.4550018310547,145.4550018310547,145.4550018310547,145.4550018310547,105,0.0,0.0
2024-07-19 14:34:00-04:00,145.52000427246094,145.52000427246094,145.52000427246094,145.52000427246094,179,0.0,0.0
2024-07-19 14:36:00-04:00,145.5050048828125,145.5050048828125,145.5050048828125,145.5050048828125,593,0.0,0.0
2024-07-19 14:42:00-04:00,145.5399932861328,145.58999633789062,145.5399932861328,145.58999633789062,1464,0.0,0.0
2024-07-19 14:43:00-04:00,145.69000244140625,145.69000244140625,145.6300048828125,145.6300048828125,423,0.0,0.0
2024-07-19 14:45:00-04:00,145.5749969482422,145.5749969482422,145.5749969482422,145.5749969482422,232,0.0,0.0
2024-07-19 14:47:00-04:00,145.66000366210938,145.66000366210938,145.66000366210938,145.66000366210938,194,0.0,0.0
2024-07-19 14:48:00-04:00,145.66000366210938,145.66000366210938,145.66000366210938,145.66000366210938,224,0.0,0.0
2024-07-19 14:50:00-04:00,145.67999267578125,145.67999267578125,145.67999267578125,145.67999267578125,253,0.0,0.0
2024-07-19 14:51:00-04:00,145.6699981689453,145.67999267578125,145.6699981689453,145.67999267578125,925,0.0,0.0
2024-07-19 14:55:00-04:00,145.75999450683594,145.75999450683594,145.75999450683594,145.75999450683594,500,0.0,0.0
2024-07-19 14:56:00-04:00,145.68499755859375,145.68499755859375,145.68499755859375,145.68499755859375,422,0.0,0.0
2024-07-19 14:57:00-04:00,145.8000030517578,145.8000030517578,145.8000030517578,145.8000030517578,646,0.0,0.0
2024-07-19 14:59:00-04:00,145.6699981689453,145.8000030517578,145.63999938964844,145.8000030517578,1238,0.0,0.0
2024-07-19 15:02:00-04:00,145.8000030517578,145.8000030517578,145.8000030517578,145.8000030517578,159,0.0,0.0
2024-07-19 15:03:00-04:00,145.80999755859375,145.80999755859375,145.80999755859375,145.80999755859375,238,0.0,0.0
2024-07-19 15:04:00-04:00,145.75,145.80999755859375,145.75,145.80999755859375,1137,0.0,0.0
2024-07-19 15:09:00-04:00,145.7949981689453,145.7949981689453,145.7949981689453,145.7949981689453,459,0.0,0.0
2024-07-19 15:11:00-04:00,145.80499267578125,145.80499267578125,145.80499267578125,145.80499267578125,206,0.0,0.0
2024-07-19 15:12:00-04:00,145.91000366210938,145.91000366210938,145.91000366210938,145.91000366210938,913,0.0,0.0
2024-07-19 15:15:00-04:00,145.89999389648438,145.89999389648438,145.89999389648438,145.89999389648438,565,0.0,0.0
2024-07-19 15:16:00-04:00,145.72000122070312,145.72000122070312,145.63999938964844,145.69000244140625,1915,0.0,0.0
2024-07-19 15:22:00-04:00,145.77999877929688,145.77999877929688,145.77000427246094,145.77000427246094,987,0.0,0.0
2024-07-19 15:24:00-04:00,145.77999877929688,145.77999877929688,145.77999877929688,145.77999877929688,628,0.0,0.0
2024-07-19 15:25:00-04:00,145.7899932861328,145.7899932861328,145.7899932861328,145.7899932861328,385,0.0,0.0
2024-07-19 15:28:00-04:00,145.77670288085938,145.77670288085938,145.77670288085938,145.77670288085938,600,0.0,0.0
2024-07-19 15:29:00-04:00,145.72999572753906,145.8800048828125,145.72999572753906,145.8699951171875,2317,0.0,0.0
2024-07-19 15:30:00-04:00,145.86000061035156,145.86000061035156,145.86000061035156,145.86000061035156,416,0.0,0.0
2024-07-19 15:31:00-04:00,145.8699951171875,145.8699951171875,145.8699951171875,145.8699951171875,521,0.0,0.0
2024-07-19 15:34:00-04:00,145.85000610351562,145.85000610351562,145.82000732421875,145.85000610351562,2123,0.0,0.0
2024-07-19 15:35:00-04:00,145.85499572753906,145.85499572753906,145.85499572753906,145.85499572753906,548,0.0,0.0
2024-07-19 15:38:00-04:00,145.8699951171875,145.8699951171875,145.8699951171875,145.8699951171875,818,0.0,0.0
2024-07-19 15:40:00-04:00,145.9199981689453,145.9199981689453,145.9199981689453,145.9199981689453,375,0.0,0.0
2024-07-19 15:41:00-04:00,145.86500549316406,145.9199981689453,145.86500549316406,145.9199981689453,1210,0.0,0.0
2024-07-19 15:42:00-04:00,145.9600067138672,145.9600067138672,145.89999389648438,145.89999389648438,1403,0.0,0.0
2024-07-19 15:43:00-04:00,145.90499877929688,145.90499877929688,145.90499877929688,145.90499877929688,619,0.0,0.0
2024-07-19 15:44:00-04:00,145.89999389648438,145.91000366210938,145.88999938964844,145.91000366210938,1126,0.0,0.0
2024-07-19 15:45:00-04:00,145.89999389648438,145.89999389648438,145.89500427246094,145.89500427246094,1058,0.0,0.0
2024-07-19 15:46:00-04:00,145.89500427246094,145.89500427246094,145.86000061035156,145.88999938964844,2163,0.0,0.0
2024-07-19 15:47:00-04:00,145.89999389648438,145.89999389648438,145.89999389648438,145.89999389648438,478,0.0,0.0
2024-07-19 15:48:00-04:00,145.88999938964844,145.89500427246094,145.86000061035156,145.86000061035156,2399,0.0,0.0
2024-07-19 15:49:00-04:00,145.9199981689453,146.0449981689453,145.9199981689453,146.0449981689453,2536,0.0,0.0
2024-07-19 15:50:00-04:00,146.11000061035156,146.19000244140625,146.11000061035156,146.19000244140625,815,0.0,0.0
2024-07-19 15:51:00-04:00,146.1999969482422,146.1999969482422,146.10000610351562,146.125,3219,0.0,0.0
2024-07-19 15:52:00-04:00,146.0800018310547,146.0800018310547,146.00999450683594,146.0399932861328,2968,0.0,0.0
2024-07-19 15:53:00-04:00,146.0,146.01499938964844,146.0,146.01499938964844,1267,0.0,0.0
2024-07-19 15:54:00-04:00,146.01499938964844,146.0500030517578,145.9600067138672,145.9600067138672,3719,0.0,0.0
2024-07-19 15:55:00-04:00,145.91000366210938,145.91000366210938,145.8300018310547,145.8300018310547,2285,0.0,0.0
2024-07-19 15:56:00-04:00,145.8350067138672,145.8350067138672,145.8000030517578,145.8300018310547,2121,0.0,0.0
2024-07-19 15:57:00-04:00,145.8300018310547,145.8800048828125,145.8300018310547,145.8300018310547,4097,0.0,0.0
2024-07-19 15:58:00-04:00,145.80999755859375,145.8699951171875,145.80999755859375,145.8699951171875,3677,0.0,0.0
2024-07-19 15:59:00-04:00,145.8800048828125,146.0800018310547,145.8699951171875,145.97000122070312,15587,0.0,0.0
