Datetime,Open,High,Low,Close,Volume,Dividends,Stock Splits
2024-08-26 09:30:00-04:00,150.67999267578125,150.67999267578125,150.67999267578125,150.67999267578125,1791,0.0,0.0
2024-08-26 09:31:00-04:00,150.67999267578125,150.8800048828125,150.67999267578125,150.8800048828125,556,0.0,0.0
2024-08-26 09:37:00-04:00,151.02999877929688,151.0800018310547,151.02999877929688,151.0800018310547,1019,0.0,0.0
2024-08-26 09:41:00-04:00,151.0050048828125,151.0050048828125,151.0050048828125,151.0050048828125,514,0.0,0.0
2024-08-26 09:45:00-04:00,151.27999877929688,151.2899932861328,151.27999877929688,151.2899932861328,505,0.0,0.0
2024-08-26 09:46:00-04:00,151.5500030517578,151.5500030517578,151.5500030517578,151.5500030517578,172,0.0,0.0
2024-08-26 09:48:00-04:00,151.327392578125,151.327392578125,151.327392578125,151.327392578125,204,0.0,0.0
2024-08-26 09:50:00-04:00,151.34500122070312,151.34500122070312,151.34500122070312,151.34500122070312,126,0.0,0.0
2024-08-26 09:52:00-04:00,151.55999755859375,151.55999755859375,151.55499267578125,151.55499267578125,808,0.0,0.0
2024-08-26 09:53:00-04:00,151.25990295410156,151.57000732421875,151.2574005126953,151.57000732421875,2942,0.0,0.0
2024-08-26 09:54:00-04:00,151.3000030517578,151.33999633789062,151.25,151.33999633789062,1089,0.0,0.0
2024-08-26 09:55:00-04:00,151.2100067138672,151.2100067138672,151.2100067138672,151.2100067138672,106,0.0,0.0
2024-08-26 09:56:00-04:00,151.2100067138672,151.2100067138672,151.2100067138672,151.2100067138672,173,0.0,0.0
2024-08-26 09:57:00-04:00,151.0399932861328,151.0399932861328,151.02999877929688,151.0399932861328,552,0.0,0.0
2024-08-26 09:58:00-04:00,151.08999633789062,151.14999389648438,151.08999633789062,151.14999389648438,722,0.0,0.0
2024-08-26 09:59:00-04:00,151.16000366210938,151.38999938964844,151.16000366210938,151.38999938964844,1214,0.0,0.0
2024-08-26 10:02:00-04:00,151.4499969482422,151.4499969482422,151.3699951171875,151.3699951171875,632,0.0,0.0
2024-08-26 10:06:00-04:00,151.38499450683594,151.5749969482422,151.38499450683594,151.5749969482422,2209,0.0,0.0
2024-08-26 10:07:00-04:00,151.72999572753906,151.75,151.72999572753906,151.75,489,0.0,0.0
2024-08-26 10:09:00-04:00,151.75,151.7899932861328,151.75,151.7899932861328,807,0.0,0.0
2024-08-26 10:10:00-04:00,151.7949981689453,151.9199981689453,151.7949981689453,151.86000061035156,799,0.0,0.0
2024-08-26 10:11:00-04:00,151.92999267578125,152.0,151.92999267578125,152.0,761,0.0,0.0
2024-08-26 10:12:00-04:00,151.9250030517578,151.94000244140625,151.9250030517578,151.94000244140625,500,0.0,0.0
2024-08-26 10:13:00-04:00,151.9250030517578,152.0800018310547,151.9250030517578,152.0800018310547,2928,0.0,0.0
2024-08-26 10:15:00-04:00,152.02499389648438,152.02499389648438,152.02499389648438,152.02499389648438,583,0.0,0.0
2024-08-26 10:17:00-04:00,152.17250061035156,152.17250061035156,152.1699981689453,152.1699981689453,249,0.0,0.0
2024-08-26 10:18:00-04:00,152.16000366210938,152.19000244140625,152.16000366210938,152.19000244140625,1490,0.0,0.0
2024-08-26 10:19:00-04:00,152.27000427246094,152.27000427246094,152.27000427246094,152.27000427246094,700,0.0,0.0
2024-08-26 10:24:00-04:00,152.41000366210938,152.44000244140625,152.35000610351562,152.41000366210938,1132,0.0,0.0
2024-08-26 10:25:00-04:00,152.4196014404297,152.4196014404297,152.3699951171875,152.3699951171875,1736,0.0,0.0
2024-08-26 10:27:00-04:00,152.47000122070312,152.6699981689453,152.47000122070312,152.6699981689453,1111,0.0,0.0
2024-08-26 10:29:00-04:00,152.57000732421875,152.60000610351562,152.52000427246094,152.52000427246094,1786,0.0,0.0
2024-08-26 10:30:00-04:00,152.3800048828125,152.3800048828125,152.3800048828125,152.3800048828125,156,0.0,0.0
2024-08-26 10:31:00-04:00,152.4499969482422,152.47000122070312,152.36000061035156,152.36000061035156,904,0.0,0.0
2024-08-26 10:33:00-04:00,152.42970275878906,152.4550018310547,152.42970275878906,152.4550018310547,316,0.0,0.0
2024-08-26 10:35:00-04:00,152.33999633789062,152.33999633789062,152.33999633789062,152.33999633789062,364,0.0,0.0
2024-08-26 10:37:00-04:00,152.27000427246094,152.3000030517578,152.27000427246094,152.3000030517578,329,0.0,0.0
2024-08-26 10:38:00-04:00,152.17999267578125,152.17999267578125,152.17999267578125,152.17999267578125,277,0.0,0.0
2024-08-26 10:40:00-04:00,152.14999389648438,152.14999389648438,152.14999389648438,152.14999389648438,140,0.0,0.0
2024-08-26 10:43:00-04:00,152.1699981689453,152.1699981689453,152.14999389648438,152.14999389648438,993,0.0,0.0
2024-08-26 10:44:00-04:00,152.11000061035156,152.1300048828125,152.05999755859375,152.05999755859375,610,0.0,0.0
2024-08-26 10:47:00-04:00,152.08999633789062,152.08999633789062,152.08999633789062,152.08999633789062,173,0.0,0.0
2024-08-26 10:49:00-04:00,152.1699981689453,152.1699981689453,152.1699981689453,152.1699981689453,101,0.0,0.0
2024-08-26 10:50:00-04:00,152.11000061035156,152.11000061035156,152.0800018310547,152.0800018310547,696,0.0,0.0
2024-08-26 10:51:00-04:00,152.0399932861328,152.17999267578125,152.02999877929688,152.17999267578125,1926,0.0,0.0
2024-08-26 10:55:00-04:00,152.08999633789062,152.08999633789062,152.05999755859375,152.05999755859375,218,0.0,0.0
2024-08-26 10:56:00-04:00,152.0399932861328,152.0399932861328,152.0,152.0,853,0.0,0.0
2024-08-26 11:00:00-04:00,151.89999389648438,151.89999389648438,151.89999389648438,151.89999389648438,170,0.0,0.0
2024-08-26 11:01:00-04:00,151.89999389648438,151.90499877929688,151.88999938964844,151.90499877929688,403,0.0,0.0
2024-08-26 11:02:00-04:00,151.7899932861328,151.7899932861328,151.7899932861328,151.7899932861328,210,0.0,0.0
2024-08-26 11:05:00-04:00,151.8300018310547,151.8300018310547,151.77999877929688,151.80999755859375,634,0.0,0.0
2024-08-26 11:08:00-04:00,151.72999572753906,151.74000549316406,151.72999572753906,151.74000549316406,652,0.0,0.0
2024-08-26 11:12:00-04:00,151.7100067138672,151.8699951171875,151.67999267578125,151.8699951171875,2008,0.0,0.0
2024-08-26 11:16:00-04:00,151.80499267578125,151.80499267578125,151.80499267578125,151.80499267578125,102,0.0,0.0
2024-08-26 11:17:00-04:00,151.74000549316406,151.74000549316406,151.72000122070312,151.72000122070312,304,0.0,0.0
2024-08-26 11:18:00-04:00,151.77499389648438,151.77499389648438,151.77499389648438,151.77499389648438,316,0.0,0.0
2024-08-26 11:20:00-04:00,151.67999267578125,151.86000061035156,151.67999267578125,151.86000061035156,5804,0.0,0.0
2024-08-26 11:21:00-04:00,151.7100067138672,151.7100067138672,151.7100067138672,151.7100067138672,171,0.0,0.0
2024-08-26 11:23:00-04:00,151.76499938964844,151.76499938964844,151.76499938964844,151.76499938964844,185,0.0,0.0
2024-08-26 11:24:00-04:00,151.7100067138672,151.74000549316406,151.6699981689453,151.6999969482422,6990,0.0,0.0
2024-08-26 11:25:00-04:00,151.72000122070312,151.72000122070312,151.6999969482422,151.6999969482422,557,0.0,0.0
2024-08-26 11:26:00-04:00,151.6999969482422,151.6999969482422,151.64999389648438,151.68499755859375,5927,0.0,0.0
2024-08-26 11:27:00-04:00,151.68499755859375,151.77000427246094,151.64999389648438,151.77000427246094,5048,0.0,0.0
2024-08-26 11:28:00-04:00,151.6999969482422,151.6999969482422,151.6999969482422,151.6999969482422,302,0.0,0.0
2024-08-26 11:29:00-04:00,151.6999969482422,151.6999969482422,151.6999969482422,151.6999969482422,397,0.0,0.0
2024-08-26 11:30:00-04:00,151.6999969482422,151.7449951171875,151.6999969482422,151.7449951171875,868,0.0,0.0
2024-08-26 11:31:00-04:00,151.7449951171875,151.7449951171875,151.6300048828125,151.63499450683594,2359,0.0,0.0
2024-08-26 11:32:00-04:00,151.6300048828125,151.6300048828125,151.625,151.625,534,0.0,0.0
2024-08-26 11:34:00-04:00,151.61500549316406,151.6999969482422,151.61500549316406,151.6199951171875,901,0.0,0.0
2024-08-26 11:35:00-04:00,151.625,151.625,151.625,151.625,244,0.0,0.0
2024-08-26 11:36:00-04:00,151.625,151.67999267578125,151.55499267578125,151.5800018310547,1950,0.0,0.0
2024-08-26 11:37:00-04:00,151.6699981689453,151.6999969482422,151.44500732421875,151.44500732421875,1536,0.0,0.0
2024-08-26 11:38:00-04:00,151.32000732421875,151.32000732421875,151.0800018310547,151.0800018310547,817,0.0,0.0
2024-08-26 11:40:00-04:00,151.1300048828125,151.1300048828125,151.1300048828125,151.1300048828125,112,0.0,0.0
2024-08-26 11:41:00-04:00,151.11000061035156,151.11000061035156,151.11000061035156,151.11000061035156,133,0.0,0.0
2024-08-26 11:42:00-04:00,151.21499633789062,151.21499633789062,151.10000610351562,151.10000610351562,457,0.0,0.0
2024-08-26 11:43:00-04:00,151.08999633789062,151.08999633789062,151.08999633789062,151.08999633789062,238,0.0,0.0
2024-08-26 11:44:00-04:00,151.0399932861328,151.0399932861328,151.02999877929688,151.02999877929688,370,0.0,0.0
2024-08-26 11:45:00-04:00,150.94000244140625,150.94000244140625,150.92999267578125,150.92999267578125,367,0.0,0.0
2024-08-26 11:47:00-04:00,150.8699951171875,150.8800048828125,150.8699951171875,150.8800048828125,316,0.0,0.0
2024-08-26 11:48:00-04:00,150.8800048828125,150.8800048828125,150.8800048828125,150.8800048828125,223,0.0,0.0
2024-08-26 11:49:00-04:00,151.03500366210938,151.03500366210938,150.9199981689453,150.9199981689453,444,0.0,0.0
2024-08-26 11:50:00-04:00,151.02999877929688,151.02999877929688,151.02999877929688,151.02999877929688,125,0.0,0.0
2024-08-26 11:51:00-04:00,150.8800048828125,150.8800048828125,150.86000061035156,150.86000061035156,257,0.0,0.0
2024-08-26 11:52:00-04:00,150.83999633789062,150.83999633789062,150.8300018310547,150.8300018310547,313,0.0,0.0
2024-08-26 11:53:00-04:00,151.00999450683594,151.19000244140625,151.00999450683594,151.05999755859375,1553,0.0,0.0
2024-08-26 11:54:00-04:00,151.1522979736328,151.1522979736328,151.1522979736328,151.1522979736328,922,0.0,0.0
2024-08-26 11:56:00-04:00,151.0124969482422,151.0124969482422,150.88999938964844,150.88999938964844,943,0.0,0.0
2024-08-26 11:58:00-04:00,151.0800018310547,151.0800018310547,150.88999938964844,150.88999938964844,632,0.0,0.0
2024-08-26 12:00:00-04:00,150.89999389648438,150.89999389648438,150.89999389648438,150.89999389648438,261,0.0,0.0
2024-08-26 12:02:00-04:00,151.0,151.0,151.0,151.0,647,0.0,0.0
2024-08-26 12:03:00-04:00,150.97000122070312,150.97000122070312,150.97000122070312,150.97000122070312,565,0.0,0.0
2024-08-26 12:06:00-04:00,151.10000610351562,151.10000610351562,151.10000610351562,151.10000610351562,454,0.0,0.0
2024-08-26 12:07:00-04:00,151.11000061035156,151.11000061035156,151.11000061035156,151.11000061035156,159,0.0,0.0
2024-08-26 12:08:00-04:00,151.1699981689453,151.1699981689453,151.1699981689453,151.1699981689453,380,0.0,0.0
2024-08-26 12:12:00-04:00,151.21499633789062,151.21499633789062,151.21499633789062,151.21499633789062,126,0.0,0.0
2024-08-26 12:13:00-04:00,151.22999572753906,151.22999572753906,151.22999572753906,151.22999572753906,370,0.0,0.0
2024-08-26 12:14:00-04:00,151.07000732421875,151.07000732421875,151.07000732421875,151.07000732421875,113,0.0,0.0
2024-08-26 12:16:00-04:00,151.0800018310547,151.0800018310547,151.0800018310547,151.0800018310547,129,0.0,0.0
2024-08-26 12:17:00-04:00,151.1999969482422,151.1999969482422,151.1999969482422,151.1999969482422,567,0.0,0.0
2024-08-26 12:19:00-04:00,151.22999572753906,151.22999572753906,151.22999572753906,151.22999572753906,258,0.0,0.0
2024-08-26 12:22:00-04:00,151.3699951171875,151.3699951171875,151.33999633789062,151.33999633789062,763,0.0,0.0
2024-08-26 12:23:00-04:00,151.4499969482422,151.4499969482422,151.4499969482422,151.4499969482422,458,0.0,0.0
2024-08-26 12:24:00-04:00,151.39999389648438,151.39999389648438,151.39999389648438,151.39999389648438,390,0.0,0.0
2024-08-26 12:28:00-04:00,151.3300018310547,151.3300018310547,151.3300018310547,151.3300018310547,154,0.0,0.0
2024-08-26 12:30:00-04:00,151.38499450683594,151.38499450683594,151.35000610351562,151.35000610351562,280,0.0,0.0
2024-08-26 12:31:00-04:00,151.27999877929688,151.27999877929688,151.27999877929688,151.27999877929688,188,0.0,0.0
2024-08-26 12:33:00-04:00,151.27999877929688,151.27999877929688,151.27999877929688,151.27999877929688,375,0.0,0.0
2024-08-26 12:35:00-04:00,151.22000122070312,151.22000122070312,151.22000122070312,151.22000122070312,350,0.0,0.0
2024-08-26 12:38:00-04:00,151.375,151.41000366210938,151.375,151.41000366210938,838,0.0,0.0
2024-08-26 12:45:00-04:00,151.41000366210938,151.41000366210938,151.41000366210938,151.41000366210938,125,0.0,0.0
2024-08-26 12:47:00-04:00,151.36000061035156,151.36000061035156,151.36000061035156,151.36000061035156,266,0.0,0.0
2024-08-26 12:52:00-04:00,151.4199981689453,151.4600067138672,151.24000549316406,151.24000549316406,1965,0.0,0.0
2024-08-26 13:05:00-04:00,151.4199981689453,151.4199981689453,151.4199981689453,151.4199981689453,191,0.0,0.0
2024-08-26 13:07:00-04:00,151.4199981689453,151.4199981689453,151.39999389648438,151.4199981689453,1096,0.0,0.0
2024-08-26 13:08:00-04:00,151.27000427246094,151.27000427246094,151.27000427246094,151.27000427246094,139,0.0,0.0
2024-08-26 13:10:00-04:00,151.39999389648438,151.39999389648438,151.39999389648438,151.39999389648438,377,0.0,0.0
2024-08-26 13:11:00-04:00,151.4600067138672,151.47999572753906,151.4499969482422,151.4499969482422,959,0.0,0.0
2024-08-26 13:12:00-04:00,151.5449981689453,151.5449981689453,151.5449981689453,151.5449981689453,127,0.0,0.0
2024-08-26 13:13:00-04:00,151.57000732421875,151.57000732421875,151.57000732421875,151.57000732421875,165,0.0,0.0
2024-08-26 13:16:00-04:00,151.4499969482422,151.4499969482422,151.4499969482422,151.4499969482422,165,0.0,0.0
2024-08-26 13:19:00-04:00,151.4199981689453,151.4199981689453,151.4199981689453,151.4199981689453,806,0.0,0.0
2024-08-26 13:27:00-04:00,151.4499969482422,151.4499969482422,151.4499969482422,151.4499969482422,487,0.0,0.0
2024-08-26 13:29:00-04:00,151.4250030517578,151.42999267578125,151.4250030517578,151.42999267578125,877,0.0,0.0
2024-08-26 13:34:00-04:00,151.47999572753906,151.47999572753906,151.47999572753906,151.47999572753906,198,0.0,0.0
2024-08-26 13:36:00-04:00,151.32000732421875,151.3249969482422,151.3000030517578,151.3249969482422,1272,0.0,0.0
2024-08-26 13:39:00-04:00,151.33999633789062,151.33999633789062,151.33999633789062,151.33999633789062,686,0.0,0.0
2024-08-26 13:43:00-04:00,151.39999389648438,151.41000366210938,151.30499267578125,151.33749389648438,1462,0.0,0.0
2024-08-26 13:44:00-04:00,151.32000732421875,151.32000732421875,151.32000732421875,151.32000732421875,1391,0.0,0.0
2024-08-26 13:53:00-04:00,151.1300048828125,151.1300048828125,151.1300048828125,151.1300048828125,381,0.0,0.0
2024-08-26 14:00:00-04:00,151.17999267578125,151.17999267578125,151.17999267578125,151.17999267578125,142,0.0,0.0
2024-08-26 14:01:00-04:00,151.17999267578125,151.17999267578125,151.17999267578125,151.17999267578125,369,0.0,0.0
2024-08-26 14:04:00-04:00,151.22999572753906,151.22999572753906,151.22999572753906,151.22999572753906,931,0.0,0.0
2024-08-26 14:05:00-04:00,151.22999572753906,151.22999572753906,151.22999572753906,151.22999572753906,192,0.0,0.0
2024-08-26 14:08:00-04:00,151.1199951171875,151.1199951171875,151.1199951171875,151.1199951171875,250,0.0,0.0
2024-08-26 14:13:00-04:00,151.19000244140625,151.19000244140625,151.19000244140625,151.19000244140625,466,0.0,0.0
2024-08-26 14:19:00-04:00,151.10000610351562,151.14999389648438,151.0800018310547,151.0800018310547,1331,0.0,0.0
2024-08-26 14:23:00-04:00,151.11000061035156,151.11000061035156,151.11000061035156,151.11000061035156,330,0.0,0.0
2024-08-26 14:24:00-04:00,151.17999267578125,151.24000549316406,151.14999389648438,151.1999969482422,1913,0.0,0.0
2024-08-26 14:25:00-04:00,151.19500732421875,151.19500732421875,151.19500732421875,151.19500732421875,739,0.0,0.0
2024-08-26 14:33:00-04:00,151.10000610351562,151.19000244140625,151.10000610351562,151.19000244140625,2920,0.0,0.0
2024-08-26 14:34:00-04:00,151.21499633789062,151.21499633789062,151.21499633789062,151.21499633789062,150,0.0,0.0
2024-08-26 14:35:00-04:00,151.2899932861328,151.33999633789062,151.2899932861328,151.3300018310547,1066,0.0,0.0
2024-08-26 14:36:00-04:00,151.375,151.375,151.375,151.375,253,0.0,0.0
2024-08-26 14:42:00-04:00,151.3699951171875,151.3699951171875,151.3699951171875,151.3699951171875,560,0.0,0.0
2024-08-26 14:46:00-04:00,151.3000030517578,151.3000030517578,151.3000030517578,151.3000030517578,348,0.0,0.0
2024-08-26 14:47:00-04:00,151.22999572753906,151.22999572753906,151.1999969482422,151.22500610351562,2933,0.0,0.0
2024-08-26 14:48:00-04:00,151.1999969482422,151.1999969482422,151.19500732421875,151.19500732421875,625,0.0,0.0
2024-08-26 14:49:00-04:00,151.1999969482422,151.1999969482422,151.1199951171875,151.125,1987,0.0,0.0
2024-08-26 14:50:00-04:00,151.1199951171875,151.1199951171875,151.1199951171875,151.1199951171875,261,0.0,0.0
2024-08-26 14:51:00-04:00,151.1199951171875,151.1199951171875,151.1199951171875,151.1199951171875,688,0.0,0.0
2024-08-26 14:53:00-04:00,151.125,151.125,151.125,151.125,510,0.0,0.0
2024-08-26 14:55:00-04:00,151.1699981689453,151.17999267578125,151.1300048828125,151.1300048828125,1447,0.0,0.0
2024-08-26 14:56:00-04:00,151.1699981689453,151.1699981689453,151.1699981689453,151.1699981689453,256,0.0,0.0
2024-08-26 14:58:00-04:00,151.16000366210938,151.16000366210938,151.16000366210938,151.16000366210938,341,0.0,0.0
2024-08-26 14:59:00-04:00,151.13999938964844,151.13999938964844,151.13999938964844,151.13999938964844,178,0.0,0.0
2024-08-26 15:00:00-04:00,151.16000366210938,151.16000366210938,151.14999389648438,151.14999389648438,1382,0.0,0.0
2024-08-26 15:05:00-04:00,151.1186981201172,151.1186981201172,151.1186981201172,151.1186981201172,1146,0.0,0.0
2024-08-26 15:06:00-04:00,151.0718994140625,151.0718994140625,151.0718994140625,151.0718994140625,563,0.0,0.0
2024-08-26 15:08:00-04:00,151.02999877929688,151.02999877929688,151.02999877929688,151.02999877929688,264,0.0,0.0
2024-08-26 15:10:00-04:00,151.0800018310547,151.08999633789062,151.0800018310547,151.08999633789062,566,0.0,0.0
2024-08-26 15:12:00-04:00,151.1300048828125,151.1300048828125,151.106201171875,151.106201171875,605,0.0,0.0
2024-08-26 15:13:00-04:00,151.09500122070312,151.09500122070312,151.09500122070312,151.09500122070312,557,0.0,0.0
2024-08-26 15:14:00-04:00,151.09500122070312,151.09500122070312,151.0399932861328,151.05999755859375,1824,0.0,0.0
2024-08-26 15:21:00-04:00,150.9199981689453,150.9199981689453,150.9199981689453,150.9199981689453,413,0.0,0.0
2024-08-26 15:26:00-04:00,150.99000549316406,150.99000549316406,150.99000549316406,150.99000549316406,390,0.0,0.0
2024-08-26 15:27:00-04:00,150.9199981689453,150.9199981689453,150.91000366210938,150.91000366210938,1383,0.0,0.0
2024-08-26 15:30:00-04:00,150.80999755859375,150.80999755859375,150.6699981689453,150.6699981689453,756,0.0,0.0
2024-08-26 15:33:00-04:00,150.67999267578125,150.67999267578125,150.67999267578125,150.67999267578125,563,0.0,0.0
2024-08-26 15:34:00-04:00,150.6999969482422,150.6999969482422,150.67999267578125,150.67999267578125,623,0.0,0.0
2024-08-26 15:36:00-04:00,150.65499877929688,150.65499877929688,150.65499877929688,150.65499877929688,154,0.0,0.0
2024-08-26 15:37:00-04:00,150.7100067138672,150.75999450683594,150.7100067138672,150.75,2515,0.0,0.0
2024-08-26 15:38:00-04:00,150.69000244140625,150.69000244140625,150.69000244140625,150.69000244140625,211,0.0,0.0
2024-08-26 15:39:00-04:00,150.67999267578125,150.67999267578125,150.67999267578125,150.67999267578125,906,0.0,0.0
2024-08-26 15:41:00-04:00,150.61500549316406,150.63999938964844,150.61500549316406,150.63999938964844,489,0.0,0.0
2024-08-26 15:42:00-04:00,150.67999267578125,150.67999267578125,150.67999267578125,150.67999267578125,529,0.0,0.0
2024-08-26 15:43:00-04:00,150.6649932861328,150.6649932861328,150.6649932861328,150.6649932861328,134,0.0,0.0
2024-08-26 15:44:00-04:00,150.66000366210938,150.81500244140625,150.66000366210938,150.72000122070312,1877,0.0,0.0
2024-08-26 15:45:00-04:00,150.72000122070312,150.81500244140625,150.72000122070312,150.81500244140625,968,0.0,0.0
2024-08-26 15:46:00-04:00,150.75999450683594,150.75999450683594,150.75999450683594,150.75999450683594,543,0.0,0.0
2024-08-26 15:47:00-04:00,150.75,150.75,150.68499755859375,150.68499755859375,1098,0.0,0.0
2024-08-26 15:48:00-04:00,150.67999267578125,150.67999267578125,150.67999267578125,150.67999267578125,233,0.0,0.0
2024-08-26 15:49:00-04:00,150.66000366210938,150.67999267578125,150.66000366210938,150.67999267578125,346,0.0,0.0
2024-08-26 15:50:00-04:00,150.66000366210938,150.77000427246094,150.61000061035156,150.77000427246094,3188,0.0,0.0
2024-08-26 15:51:00-04:00,150.71499633789062,150.71499633789062,150.6199951171875,150.6649932861328,2640,0.0,0.0
2024-08-26 15:52:00-04:00,150.5500030517578,150.5500030517578,150.47000122070312,150.52499389648438,2670,0.0,0.0
2024-08-26 15:53:00-04:00,150.61000061035156,150.6649932861328,150.61000061035156,150.6649932861328,2067,0.0,0.0
2024-08-26 15:54:00-04:00,150.6649932861328,150.67999267578125,150.60000610351562,150.63999938964844,2252,0.0,0.0
2024-08-26 15:55:00-04:00,150.47999572753906,150.5225067138672,150.30999755859375,150.30999755859375,3596,0.0,0.0
2024-08-26 15:56:00-04:00,150.34500122070312,150.36000061035156,150.30999755859375,150.36000061035156,2198,0.0,0.0
2024-08-26 15:57:00-04:00,150.3300018310547,150.35000610351562,150.14999389648438,150.19000244140625,7206,0.0,0.0
2024-08-26 15:58:00-04:00,150.17999267578125,150.22000122070312,150.16000366210938,150.22000122070312,1726,0.0,0.0
2024-08-26 15:59:00-04:00,150.27999877929688,150.3300018310547,150.13999938964844,150.16000366210938,10978,0.0,0.0
2024-08-27 09:30:00-04:00,150.00999450683594,150.00999450683594,150.00999450683594,150.00999450683594,1463,0.0,0.0
2024-08-27 09:40:00-04:00,149.93499755859375,150.0,149.83999633789062,149.875,1066,0.0,0.0
2024-08-27 09:45:00-04:00,150.0,150.0,149.9375,150.0,1019,0.0,0.0
2024-08-27 09:49:00-04:00,150.0749969482422,150.0749969482422,150.0749969482422,150.0749969482422,231,0.0,0.0
2024-08-27 09:50:00-04:00,150.30999755859375,150.30999755859375,150.30999755859375,150.30999755859375,154,0.0,0.0
2024-08-27 09:51:00-04:00,150.30999755859375,150.30999755859375,150.3000030517578,150.30999755859375,878,0.0,0.0
2024-08-27 09:53:00-04:00,150.16000366210938,150.16000366210938,150.16000366210938,150.16000366210938,158,0.0,0.0
2024-08-27 09:54:00-04:00,150.0500030517578,150.30999755859375,150.0500030517578,150.30999755859375,453,0.0,0.0
2024-08-27 09:58:00-04:00,150.16000366210938,150.16000366210938,150.16000366210938,150.16000366210938,144,0.0,0.0
2024-08-27 09:59:00-04:00,150.14999389648438,150.14999389648438,150.14999389648438,150.14999389648438,108,0.0,0.0
2024-08-27 10:00:00-04:00,150.16000366210938,150.2324981689453,150.16000366210938,150.2324981689453,370,0.0,0.0
2024-08-27 10:02:00-04:00,150.30999755859375,150.30999755859375,150.30999755859375,150.30999755859375,320,0.0,0.0
2024-08-27 10:04:00-04:00,150.55999755859375,150.75999450683594,150.55999755859375,150.75999450683594,521,0.0,0.0
2024-08-27 10:05:00-04:00,150.6999969482422,150.6999969482422,150.6199951171875,150.6199951171875,411,0.0,0.0
2024-08-27 10:06:00-04:00,150.7949981689453,150.7949981689453,150.7949981689453,150.7949981689453,365,0.0,0.0
2024-08-27 10:08:00-04:00,150.63999938964844,150.63999938964844,150.63999938964844,150.63999938964844,105,0.0,0.0
2024-08-27 10:09:00-04:00,150.72500610351562,150.72500610351562,150.72500610351562,150.72500610351562,214,0.0,0.0
2024-08-27 10:10:00-04:00,150.6300048828125,150.6300048828125,150.6300048828125,150.6300048828125,316,0.0,0.0
2024-08-27 10:11:00-04:00,150.6199951171875,150.6199951171875,150.6199951171875,150.6199951171875,382,0.0,0.0
2024-08-27 10:12:00-04:00,150.66000366210938,150.85000610351562,150.66000366210938,150.85000610351562,2575,0.0,0.0
2024-08-27 10:13:00-04:00,150.875,150.875,150.875,150.875,219,0.0,0.0
2024-08-27 10:14:00-04:00,150.88999938964844,150.88999938964844,150.77499389648438,150.85499572753906,1182,0.0,0.0
2024-08-27 10:15:00-04:00,150.9199981689453,150.9199981689453,150.8000030517578,150.82000732421875,1270,0.0,0.0
2024-08-27 10:16:00-04:00,150.8000030517578,150.8000030517578,150.77000427246094,150.8000030517578,534,0.0,0.0
2024-08-27 10:17:00-04:00,150.76499938964844,150.8000030517578,150.72500610351562,150.7899932861328,3407,0.0,0.0
2024-08-27 10:20:00-04:00,150.8000030517578,150.8000030517578,150.7899932861328,150.7899932861328,331,0.0,0.0
2024-08-27 10:21:00-04:00,150.80999755859375,150.80999755859375,150.80999755859375,150.80999755859375,541,0.0,0.0
2024-08-27 10:23:00-04:00,150.8350067138672,151.14999389648438,150.8350067138672,151.14999389648438,3798,0.0,0.0
2024-08-27 10:24:00-04:00,151.19000244140625,151.3300018310547,151.17999267578125,151.17999267578125,2640,0.0,0.0
2024-08-27 10:25:00-04:00,151.16000366210938,151.3000030517578,151.0800018310547,151.3000030517578,3131,0.0,0.0
2024-08-27 10:28:00-04:00,151.30999755859375,151.52000427246094,151.30999755859375,151.52000427246094,1719,0.0,0.0
2024-08-27 10:33:00-04:00,151.3300018310547,151.5399932861328,151.25999450683594,151.41090393066406,1439,0.0,0.0
2024-08-27 10:40:00-04:00,151.26499938964844,151.26499938964844,151.26499938964844,151.26499938964844,288,0.0,0.0
2024-08-27 10:46:00-04:00,151.2949981689453,151.2949981689453,151.2949981689453,151.2949981689453,259,0.0,0.0
2024-08-27 10:47:00-04:00,151.2899932861328,151.2899932861328,151.2899932861328,151.2899932861328,933,0.0,0.0
2024-08-27 10:57:00-04:00,151.3000030517578,151.3000030517578,151.3000030517578,151.3000030517578,329,0.0,0.0
2024-08-27 10:58:00-04:00,151.02999877929688,151.02999877929688,151.02999877929688,151.02999877929688,211,0.0,0.0
2024-08-27 10:59:00-04:00,150.9949951171875,151.19000244140625,150.9600067138672,151.19000244140625,1011,0.0,0.0
2024-08-27 11:02:00-04:00,151.10499572753906,151.27000427246094,151.10499572753906,151.27000427246094,528,0.0,0.0
2024-08-27 11:04:00-04:00,151.34500122070312,151.35000610351562,151.34500122070312,151.35000610351562,375,0.0,0.0
2024-08-27 11:06:00-04:00,151.33999633789062,151.33999633789062,151.14999389648438,151.14999389648438,360,0.0,0.0
2024-08-27 11:07:00-04:00,151.3249969482422,151.33999633789062,151.3249969482422,151.33999633789062,620,0.0,0.0
2024-08-27 11:08:00-04:00,151.27760314941406,151.27760314941406,151.27760314941406,151.27760314941406,497,0.0,0.0
2024-08-27 11:12:00-04:00,151.22999572753906,151.22999572753906,151.11000061035156,151.11000061035156,326,0.0,0.0
2024-08-27 11:14:00-04:00,151.25,151.25,151.25,151.25,289,0.0,0.0
2024-08-27 11:17:00-04:00,151.13999938964844,151.13999938964844,151.13999938964844,151.13999938964844,302,0.0,0.0
2024-08-27 11:18:00-04:00,150.92999267578125,151.0,150.91000366210938,150.9949951171875,1322,0.0,0.0
2024-08-27 11:22:00-04:00,150.9949951171875,150.9949951171875,150.9949951171875,150.9949951171875,365,0.0,0.0
2024-08-27 11:25:00-04:00,151.0,151.0,150.9499969482422,151.0,604,0.0,0.0
2024-08-27 11:26:00-04:00,150.97999572753906,150.97999572753906,150.97999572753906,150.97999572753906,315,0.0,0.0
2024-08-27 11:28:00-04:00,151.0,151.0,151.0,151.0,234,0.0,0.0
2024-08-27 11:30:00-04:00,150.98500061035156,150.98500061035156,150.94000244140625,150.94000244140625,1236,0.0,0.0
2024-08-27 11:33:00-04:00,150.9199981689453,151.0,150.9199981689453,150.99000549316406,334,0.0,0.0
2024-08-27 11:36:00-04:00,151.0,151.0,150.88650512695312,150.88650512695312,597,0.0,0.0
2024-08-27 11:38:00-04:00,151.0,151.0,151.0,151.0,206,0.0,0.0
2024-08-27 11:39:00-04:00,151.0,151.0,150.97999572753906,151.0,301,0.0,0.0
2024-08-27 11:40:00-04:00,151.0,151.0,150.9949951171875,151.0,411,0.0,0.0
2024-08-27 11:41:00-04:00,150.97999572753906,151.0399932861328,150.94000244140625,151.0,6253,0.0,0.0
2024-08-27 11:42:00-04:00,150.9600067138672,151.02499389648438,150.8800048828125,150.99000549316406,1462,0.0,0.0
2024-08-27 11:43:00-04:00,151.00999450683594,151.00999450683594,151.0,151.0,509,0.0,0.0
2024-08-27 11:44:00-04:00,151.0,151.0,151.0,151.0,205,0.0,0.0
2024-08-27 11:48:00-04:00,151.0,151.02000427246094,150.9824981689453,150.9824981689453,741,0.0,0.0
2024-08-27 11:53:00-04:00,150.96499633789062,150.96499633789062,150.96499633789062,150.96499633789062,281,0.0,0.0
2024-08-27 11:56:00-04:00,150.99000549316406,150.99000549316406,150.99000549316406,150.99000549316406,318,0.0,0.0
2024-08-27 11:58:00-04:00,150.8699951171875,150.91000366210938,150.85000610351562,150.91000366210938,835,0.0,0.0
2024-08-27 12:00:00-04:00,150.89999389648438,150.9949951171875,150.89999389648438,150.9949951171875,1214,0.0,0.0
2024-08-27 12:02:00-04:00,150.91000366210938,150.91000366210938,150.91000366210938,150.91000366210938,104,0.0,0.0
2024-08-27 12:03:00-04:00,150.90499877929688,150.90499877929688,150.90499877929688,150.90499877929688,288,0.0,0.0
2024-08-27 12:05:00-04:00,150.90499877929688,150.90499877929688,150.90499877929688,150.90499877929688,216,0.0,0.0
2024-08-27 12:07:00-04:00,150.8863983154297,150.89999389648438,150.8300018310547,150.8800048828125,841,0.0,0.0
2024-08-27 12:11:00-04:00,150.85499572753906,150.85499572753906,150.85499572753906,150.85499572753906,193,0.0,0.0
2024-08-27 12:12:00-04:00,150.78269958496094,150.78269958496094,150.78269958496094,150.78269958496094,698,0.0,0.0
2024-08-27 12:14:00-04:00,150.86500549316406,150.86500549316406,150.86500549316406,150.86500549316406,191,0.0,0.0
2024-08-27 12:16:00-04:00,150.89999389648438,150.89999389648438,150.89999389648438,150.89999389648438,299,0.0,0.0
2024-08-27 12:21:00-04:00,150.88980102539062,150.88980102539062,150.88980102539062,150.88980102539062,404,0.0,0.0
2024-08-27 12:22:00-04:00,150.77999877929688,150.77999877929688,150.77999877929688,150.77999877929688,105,0.0,0.0
2024-08-27 12:24:00-04:00,150.69000244140625,150.69000244140625,150.69000244140625,150.69000244140625,111,0.0,0.0
2024-08-27 12:25:00-04:00,150.75999450683594,150.8000030517578,150.75999450683594,150.77000427246094,577,0.0,0.0
2024-08-27 12:27:00-04:00,150.8000030517578,150.8000030517578,150.8000030517578,150.8000030517578,230,0.0,0.0
2024-08-27 12:28:00-04:00,150.8000030517578,150.8000030517578,150.8000030517578,150.8000030517578,105,0.0,0.0
2024-08-27 12:29:00-04:00,150.8000030517578,150.8800048828125,150.8000030517578,150.86000061035156,1855,0.0,0.0
2024-08-27 12:31:00-04:00,150.83999633789062,150.83999633789062,150.83999633789062,150.83999633789062,113,0.0,0.0
2024-08-27 12:32:00-04:00,150.85000610351562,150.85000610351562,150.83169555664062,150.83169555664062,375,0.0,0.0
2024-08-27 12:35:00-04:00,150.80999755859375,150.80999755859375,150.80999755859375,150.80999755859375,174,0.0,0.0
2024-08-27 12:37:00-04:00,150.8000030517578,150.8699951171875,150.8000030517578,150.8699951171875,265,0.0,0.0
2024-08-27 12:41:00-04:00,150.8699951171875,150.8699951171875,150.80999755859375,150.8699951171875,825,0.0,0.0
2024-08-27 12:42:00-04:00,150.8000030517578,150.80999755859375,150.8000030517578,150.8000030517578,1020,0.0,0.0
2024-08-27 12:44:00-04:00,150.80999755859375,150.80999755859375,150.75999450683594,150.77999877929688,974,0.0,0.0
2024-08-27 12:45:00-04:00,150.8000030517578,150.8000030517578,150.73500061035156,150.8000030517578,415,0.0,0.0
2024-08-27 12:48:00-04:00,150.8000030517578,150.8000030517578,150.77999877929688,150.7899932861328,1051,0.0,0.0
2024-08-27 12:49:00-04:00,150.77999877929688,150.83999633789062,150.77999877929688,150.83999633789062,1281,0.0,0.0
2024-08-27 12:50:00-04:00,150.85989379882812,150.8800048828125,150.85989379882812,150.8800048828125,1085,0.0,0.0
2024-08-27 12:54:00-04:00,150.86000061035156,150.86000061035156,150.86000061035156,150.86000061035156,183,0.0,0.0
2024-08-27 12:57:00-04:00,150.8699951171875,150.9250030517578,150.8699951171875,150.9250030517578,282,0.0,0.0
2024-08-27 13:03:00-04:00,150.86500549316406,150.86500549316406,150.86500549316406,150.86500549316406,200,0.0,0.0
2024-08-27 13:05:00-04:00,150.9199981689453,150.94500732421875,150.9199981689453,150.94500732421875,336,0.0,0.0
2024-08-27 13:06:00-04:00,151.0,151.02000427246094,150.94000244140625,150.94000244140625,2101,0.0,0.0
2024-08-27 13:07:00-04:00,150.9499969482422,150.9499969482422,150.94000244140625,150.94000244140625,517,0.0,0.0
2024-08-27 13:15:00-04:00,150.9149932861328,150.9149932861328,150.9149932861328,150.9149932861328,272,0.0,0.0
2024-08-27 13:21:00-04:00,150.89999389648438,150.89999389648438,150.89999389648438,150.89999389648438,362,0.0,0.0
2024-08-27 13:28:00-04:00,151.0,151.13499450683594,151.0,151.13499450683594,1557,0.0,0.0
2024-08-27 13:29:00-04:00,151.13499450683594,151.13999938964844,151.13499450683594,151.13999938964844,1428,0.0,0.0
2024-08-27 13:31:00-04:00,151.19500732421875,151.19500732421875,151.19500732421875,151.19500732421875,119,0.0,0.0
2024-08-27 13:32:00-04:00,151.19500732421875,151.2449951171875,151.19500732421875,151.19500732421875,1658,0.0,0.0
2024-08-27 13:39:00-04:00,151.19000244140625,151.21389770507812,151.19000244140625,151.19000244140625,1045,0.0,0.0
2024-08-27 13:42:00-04:00,151.19500732421875,151.19500732421875,151.14999389648438,151.16000366210938,1359,0.0,0.0
2024-08-27 13:49:00-04:00,151.14500427246094,151.14500427246094,151.14500427246094,151.14500427246094,257,0.0,0.0
2024-08-27 13:54:00-04:00,151.11000061035156,151.13499450683594,151.11000061035156,151.13499450683594,210,0.0,0.0
2024-08-27 13:56:00-04:00,151.13499450683594,151.13499450683594,151.13499450683594,151.13499450683594,611,0.0,0.0
2024-08-27 14:04:00-04:00,151.1199951171875,151.1199951171875,151.1199951171875,151.1199951171875,312,0.0,0.0
2024-08-27 14:05:00-04:00,151.0800018310547,151.1649932861328,151.0800018310547,151.1300048828125,969,0.0,0.0
2024-08-27 14:06:00-04:00,151.1300048828125,151.1300048828125,151.1300048828125,151.1300048828125,436,0.0,0.0
2024-08-27 14:07:00-04:00,151.0800018310547,151.0850067138672,150.98500061035156,150.99000549316406,4213,0.0,0.0
2024-08-27 14:08:00-04:00,151.0,151.0500030517578,150.99249267578125,151.02749633789062,1759,0.0,0.0
2024-08-27 14:12:00-04:00,151.00999450683594,151.00999450683594,151.00999450683594,151.00999450683594,220,0.0,0.0
2024-08-27 14:14:00-04:00,151.00999450683594,151.00999450683594,150.97999572753906,150.97999572753906,467,0.0,0.0
2024-08-27 14:16:00-04:00,150.97999572753906,150.97999572753906,150.97999572753906,150.97999572753906,115,0.0,0.0
2024-08-27 14:17:00-04:00,150.97999572753906,150.99000549316406,150.97999572753906,150.99000549316406,363,0.0,0.0
2024-08-27 14:18:00-04:00,151.0,151.0,151.0,151.0,586,0.0,0.0
2024-08-27 14:22:00-04:00,151.0399932861328,151.0399932861328,151.00999450683594,151.00999450683594,413,0.0,0.0
2024-08-27 14:23:00-04:00,151.0,151.0,151.0,151.0,122,0.0,0.0
2024-08-27 14:26:00-04:00,150.9949951171875,150.9949951171875,150.9949951171875,150.9949951171875,100,0.0,0.0
2024-08-27 14:27:00-04:00,150.99749755859375,151.0,150.99000549316406,150.99000549316406,701,0.0,0.0
2024-08-27 14:30:00-04:00,150.99000549316406,151.0,150.97999572753906,150.97999572753906,2263,0.0,0.0
2024-08-27 14:31:00-04:00,151.00999450683594,151.00999450683594,151.00999450683594,151.00999450683594,254,0.0,0.0
2024-08-27 14:32:00-04:00,151.00999450683594,151.00999450683594,151.00999450683594,151.00999450683594,271,0.0,0.0
2024-08-27 14:33:00-04:00,151.0,151.0,151.0,151.0,228,0.0,0.0
2024-08-27 14:35:00-04:00,150.9600067138672,150.9600067138672,150.9600067138672,150.9600067138672,287,0.0,0.0
2024-08-27 14:36:00-04:00,151.02999877929688,151.02999877929688,151.02000427246094,151.02000427246094,312,0.0,0.0
2024-08-27 14:39:00-04:00,151.02999877929688,151.02999877929688,151.02999877929688,151.02999877929688,109,0.0,0.0
2024-08-27 14:40:00-04:00,151.0,151.0,151.0,151.0,229,0.0,0.0
2024-08-27 14:41:00-04:00,151.0,151.0,151.0,151.0,269,0.0,0.0
2024-08-27 14:42:00-04:00,150.9949951171875,150.9949951171875,150.9949951171875,150.9949951171875,504,0.0,0.0
2024-08-27 14:44:00-04:00,151.0500030517578,151.11000061035156,151.0500030517578,151.10000610351562,666,0.0,0.0
2024-08-27 14:45:00-04:00,151.1649932861328,151.1649932861328,151.1649932861328,151.1649932861328,124,0.0,0.0
2024-08-27 14:46:00-04:00,151.125,151.125,151.125,151.125,315,0.0,0.0
2024-08-27 14:47:00-04:00,151.1199951171875,151.1199951171875,151.1199951171875,151.1199951171875,354,0.0,0.0
2024-08-27 14:50:00-04:00,151.02000427246094,151.02999877929688,150.99000549316406,150.99000549316406,1308,0.0,0.0
2024-08-27 14:56:00-04:00,151.02000427246094,151.02000427246094,151.02000427246094,151.02000427246094,309,0.0,0.0
2024-08-27 14:58:00-04:00,151.0,151.0,150.98500061035156,151.0,481,0.0,0.0
2024-08-27 15:01:00-04:00,150.92999267578125,150.92999267578125,150.92999267578125,150.92999267578125,103,0.0,0.0
2024-08-27 15:02:00-04:00,151.0,151.0,151.0,151.0,161,0.0,0.0
2024-08-27 15:03:00-04:00,150.9949951171875,151.0,150.9949951171875,151.0,488,0.0,0.0
2024-08-27 15:05:00-04:00,150.91000366210938,150.91000366210938,150.91000366210938,150.91000366210938,119,0.0,0.0
2024-08-27 15:06:00-04:00,150.94000244140625,150.94000244140625,150.94000244140625,150.94000244140625,513,0.0,0.0
2024-08-27 15:08:00-04:00,150.97500610351562,150.97500610351562,150.97500610351562,150.97500610351562,150,0.0,0.0
2024-08-27 15:10:00-04:00,151.0,151.0,150.98500061035156,150.98500061035156,446,0.0,0.0
2024-08-27 15:13:00-04:00,150.98089599609375,150.99000549316406,150.91000366210938,150.9250030517578,1372,0.0,0.0
2024-08-27 15:14:00-04:00,150.97999572753906,151.0399932861328,150.96249389648438,150.99000549316406,1262,0.0,0.0
2024-08-27 15:17:00-04:00,150.99249267578125,150.99249267578125,150.99249267578125,150.99249267578125,305,0.0,0.0
2024-08-27 15:22:00-04:00,150.9949951171875,150.9949951171875,150.9949951171875,150.9949951171875,314,0.0,0.0
2024-08-27 15:24:00-04:00,151.02000427246094,151.02000427246094,151.02000427246094,151.02000427246094,250,0.0,0.0
2024-08-27 15:27:00-04:00,151.0050048828125,151.0050048828125,150.99000549316406,150.99000549316406,466,0.0,0.0
2024-08-27 15:28:00-04:00,150.9949951171875,151.0,150.9949951171875,151.0,962,0.0,0.0
2024-08-27 15:30:00-04:00,151.0,151.0,151.0,151.0,104,0.0,0.0
2024-08-27 15:31:00-04:00,151.0500030517578,151.07000732421875,150.99249267578125,150.99249267578125,1644,0.0,0.0
2024-08-27 15:32:00-04:00,151.0,151.0,151.0,151.0,373,0.0,0.0
2024-08-27 15:36:00-04:00,151.0,151.02999877929688,150.97000122070312,151.02000427246094,1777,0.0,0.0
2024-08-27 15:38:00-04:00,151.0,151.0,150.96499633789062,151.0,1281,0.0,0.0
2024-08-27 15:39:00-04:00,150.9600067138672,151.0,150.9600067138672,151.0,673,0.0,0.0
2024-08-27 15:40:00-04:00,150.9550018310547,151.02000427246094,150.9550018310547,150.99000549316406,1786,0.0,0.0
2024-08-27 15:41:00-04:00,151.0,151.0,150.9499969482422,150.98500061035156,2070,0.0,0.0
2024-08-27 15:44:00-04:00,150.99000549316406,150.9949951171875,150.97000122070312,150.9949951171875,877,0.0,0.0
2024-08-27 15:46:00-04:00,151.05499267578125,151.05499267578125,151.03500366210938,151.03500366210938,1173,0.0,0.0
2024-08-27 15:47:00-04:00,151.00999450683594,151.00999450683594,151.00999450683594,151.00999450683594,101,0.0,0.0
2024-08-27 15:50:00-04:00,151.05999755859375,151.1300048828125,151.0399932861328,151.08999633789062,3098,0.0,0.0
2024-08-27 15:52:00-04:00,151.1300048828125,151.19000244140625,151.1300048828125,151.19000244140625,2058,0.0,0.0
2024-08-27 15:53:00-04:00,151.1999969482422,151.1999969482422,151.14999389648438,151.19500732421875,1727,0.0,0.0
2024-08-27 15:54:00-04:00,151.21499633789062,151.25999450683594,151.16000366210938,151.16000366210938,2528,0.0,0.0
2024-08-27 15:55:00-04:00,151.1999969482422,151.2100067138672,151.16000366210938,151.16000366210938,1330,0.0,0.0
2024-08-27 15:56:00-04:00,150.99000549316406,150.99000549316406,150.99000549316406,150.99000549316406,1394,0.0,0.0
2024-08-27 15:57:00-04:00,150.99000549316406,151.0399932861328,150.99000549316406,151.0,2022,0.0,0.0
2024-08-27 15:58:00-04:00,151.02999877929688,151.07000732421875,151.02000427246094,151.02000427246094,2117,0.0,0.0
2024-08-27 15:59:00-04:00,151.02000427246094,151.24000549316406,150.97999572753906,151.2100067138672,13524,0.0,0.0
2024-08-28 09:30:00-04:00,150.92999267578125,150.92999267578125,150.92999267578125,150.92999267578125,2186,0.0,0.0
2024-08-28 09:44:00-04:00,151.1699981689453,151.1699981689453,151.1699981689453,151.1699981689453,718,0.0,0.0
2024-08-28 09:48:00-04:00,151.1999969482422,151.42999267578125,151.11500549316406,151.42999267578125,3035,0.0,0.0
2024-08-28 09:53:00-04:00,151.1999969482422,151.2100067138672,151.19000244140625,151.1999969482422,1140,0.0,0.0
2024-08-28 09:56:00-04:00,151.24000549316406,151.24000549316406,151.0,151.0,354,0.0,0.0
2024-08-28 09:57:00-04:00,151.16000366210938,151.5,151.1199951171875,151.3249969482422,5225,0.0,0.0
2024-08-28 10:00:00-04:00,151.3300018310547,151.377197265625,151.3300018310547,151.377197265625,880,0.0,0.0
2024-08-28 10:01:00-04:00,151.39999389648438,151.39999389648438,151.25,151.25,1564,0.0,0.0
2024-08-28 10:02:00-04:00,151.25,151.25,151.25,151.25,154,0.0,0.0
2024-08-28 10:03:00-04:00,151.25,151.25,151.25,151.25,107,0.0,0.0
2024-08-28 10:04:00-04:00,151.39999389648438,151.39999389648438,151.39999389648438,151.39999389648438,194,0.0,0.0
2024-08-28 10:05:00-04:00,151.0449981689453,151.44000244140625,151.0449981689453,151.39999389648438,1645,0.0,0.0
2024-08-28 10:07:00-04:00,151.47999572753906,151.47999572753906,151.47999572753906,151.47999572753906,632,0.0,0.0
2024-08-28 10:12:00-04:00,151.5399932861328,151.5500030517578,151.5399932861328,151.5500030517578,495,0.0,0.0
2024-08-28 10:16:00-04:00,151.4199981689453,151.4199981689453,151.4199981689453,151.4199981689453,325,0.0,0.0
2024-08-28 10:20:00-04:00,151.5399932861328,151.5399932861328,151.5399932861328,151.5399932861328,586,0.0,0.0
2024-08-28 10:28:00-04:00,151.5050048828125,151.5050048828125,151.5050048828125,151.5050048828125,495,0.0,0.0
2024-08-28 10:32:00-04:00,151.6199951171875,151.67999267578125,151.6074981689453,151.6074981689453,2030,0.0,0.0
2024-08-28 10:33:00-04:00,151.69000244140625,151.69000244140625,151.67999267578125,151.67999267578125,438,0.0,0.0
2024-08-28 10:34:00-04:00,151.6300048828125,151.72000122070312,151.6300048828125,151.64999389648438,802,0.0,0.0
2024-08-28 10:47:00-04:00,151.8000030517578,151.86000061035156,151.77000427246094,151.77000427246094,963,0.0,0.0
2024-08-28 10:51:00-04:00,151.67999267578125,151.67999267578125,151.67999267578125,151.67999267578125,296,0.0,0.0
2024-08-28 10:58:00-04:00,151.6699981689453,151.6699981689453,151.6699981689453,151.6699981689453,254,0.0,0.0
2024-08-28 10:59:00-04:00,151.83999633789062,151.83999633789062,151.83999633789062,151.83999633789062,353,0.0,0.0
2024-08-28 11:00:00-04:00,151.65499877929688,151.65499877929688,151.65499877929688,151.65499877929688,263,0.0,0.0
2024-08-28 11:03:00-04:00,151.61000061035156,151.61000061035156,151.61000061035156,151.61000061035156,212,0.0,0.0
2024-08-28 11:07:00-04:00,151.5800018310547,151.5800018310547,151.5800018310547,151.5800018310547,974,0.0,0.0
2024-08-28 11:08:00-04:00,151.4600067138672,151.55999755859375,151.4499969482422,151.4499969482422,2774,0.0,0.0
2024-08-28 11:09:00-04:00,151.3699951171875,151.3699951171875,151.3699951171875,151.3699951171875,130,0.0,0.0
2024-08-28 11:11:00-04:00,151.39999389648438,151.39999389648438,151.39999389648438,151.39999389648438,136,0.0,0.0
2024-08-28 11:12:00-04:00,151.39500427246094,151.39500427246094,151.39500427246094,151.39500427246094,502,0.0,0.0
2024-08-28 11:13:00-04:00,151.39999389648438,151.44000244140625,151.30999755859375,151.39500427246094,2286,0.0,0.0
2024-08-28 11:14:00-04:00,151.42999267578125,151.42999267578125,151.42999267578125,151.42999267578125,509,0.0,0.0
2024-08-28 11:15:00-04:00,151.39500427246094,151.52999877929688,151.39500427246094,151.39999389648438,3269,0.0,0.0
2024-08-28 11:16:00-04:00,151.38499450683594,151.39999389648438,151.38499450683594,151.39999389648438,1744,0.0,0.0
2024-08-28 11:18:00-04:00,151.47999572753906,151.47999572753906,151.4600067138672,151.4600067138672,593,0.0,0.0
2024-08-28 11:20:00-04:00,151.44000244140625,151.44000244140625,151.44000244140625,151.44000244140625,538,0.0,0.0
2024-08-28 11:22:00-04:00,151.39999389648438,151.42999267578125,151.39999389648438,151.42999267578125,436,0.0,0.0
2024-08-28 11:23:00-04:00,151.39999389648438,151.39999389648438,151.39999389648438,151.39999389648438,145,0.0,0.0
2024-08-28 11:24:00-04:00,151.44749450683594,151.45249938964844,151.35000610351562,151.35000610351562,566,0.0,0.0
2024-08-28 11:26:00-04:00,151.39999389648438,151.39999389648438,151.39999389648438,151.39999389648438,357,0.0,0.0
2024-08-28 11:28:00-04:00,151.4600067138672,151.4600067138672,151.35499572753906,151.39999389648438,780,0.0,0.0
2024-08-28 11:30:00-04:00,151.39999389648438,151.39999389648438,151.39999389648438,151.39999389648438,143,0.0,0.0
2024-08-28 11:32:00-04:00,151.38499450683594,151.38499450683594,151.37530517578125,151.37530517578125,513,0.0,0.0
2024-08-28 11:33:00-04:00,151.375,151.375,151.375,151.375,107,0.0,0.0
2024-08-28 11:34:00-04:00,151.39999389648438,151.39999389648438,151.35000610351562,151.35000610351562,954,0.0,0.0
2024-08-28 11:40:00-04:00,151.39500427246094,151.4499969482422,151.39500427246094,151.39999389648438,1142,0.0,0.0
2024-08-28 11:41:00-04:00,151.375,151.375,151.375,151.375,114,0.0,0.0
2024-08-28 11:43:00-04:00,151.39999389648438,151.39999389648438,151.39999389648438,151.39999389648438,375,0.0,0.0
2024-08-28 11:44:00-04:00,151.39999389648438,151.4199981689453,151.35000610351562,151.39999389648438,4977,0.0,0.0
2024-08-28 11:45:00-04:00,151.39999389648438,151.39999389648438,151.33999633789062,151.3800048828125,5585,0.0,0.0
2024-08-28 11:46:00-04:00,151.38999938964844,151.39999389648438,151.38999938964844,151.39999389648438,1022,0.0,0.0
2024-08-28 11:50:00-04:00,151.47999572753906,151.47999572753906,151.47999572753906,151.47999572753906,489,0.0,0.0
2024-08-28 11:52:00-04:00,151.57000732421875,151.57000732421875,151.57000732421875,151.57000732421875,293,0.0,0.0
2024-08-28 11:53:00-04:00,151.5800018310547,151.5800018310547,151.4600067138672,151.50999450683594,1322,0.0,0.0
2024-08-28 11:58:00-04:00,151.5399932861328,151.5399932861328,151.5399932861328,151.5399932861328,900,0.0,0.0
2024-08-28 12:10:00-04:00,151.39999389648438,151.39999389648438,151.39999389648438,151.39999389648438,262,0.0,0.0
2024-08-28 12:11:00-04:00,151.375,151.375,151.375,151.375,146,0.0,0.0
2024-08-28 12:12:00-04:00,151.44000244140625,151.44000244140625,151.38999938964844,151.38999938964844,618,0.0,0.0
2024-08-28 12:14:00-04:00,151.4600067138672,151.4600067138672,151.4250030517578,151.4250030517578,609,0.0,0.0
2024-08-28 12:16:00-04:00,151.3300018310547,151.33999633789062,151.3300018310547,151.33999633789062,876,0.0,0.0
2024-08-28 12:25:00-04:00,151.08999633789062,151.16990661621094,151.08999633789062,151.16990661621094,384,0.0,0.0
2024-08-28 12:28:00-04:00,151.125,151.27000427246094,151.10000610351562,151.27000427246094,2623,0.0,0.0
2024-08-28 12:37:00-04:00,151.1999969482422,151.1999969482422,151.1999969482422,151.1999969482422,697,0.0,0.0
2024-08-28 12:50:00-04:00,151.2899932861328,151.2899932861328,151.2899932861328,151.2899932861328,1642,0.0,0.0
2024-08-28 13:03:00-04:00,151.36000061035156,151.36000061035156,151.36000061035156,151.36000061035156,618,0.0,0.0
2024-08-28 13:06:00-04:00,151.3000030517578,151.3000030517578,151.3000030517578,151.3000030517578,393,0.0,0.0
2024-08-28 13:12:00-04:00,151.38999938964844,151.4600067138672,151.38999938964844,151.42999267578125,1211,0.0,0.0
2024-08-28 13:18:00-04:00,151.30999755859375,151.32000732421875,151.3000030517578,151.32000732421875,1933,0.0,0.0
2024-08-28 13:24:00-04:00,151.3000030517578,151.3000030517578,151.3000030517578,151.3000030517578,684,0.0,0.0
2024-08-28 13:25:00-04:00,151.3000030517578,151.3000030517578,151.3000030517578,151.3000030517578,242,0.0,0.0
2024-08-28 13:27:00-04:00,151.3000030517578,151.3000030517578,151.27999877929688,151.27999877929688,1129,0.0,0.0
2024-08-28 13:28:00-04:00,151.3000030517578,151.3000030517578,151.3000030517578,151.3000030517578,187,0.0,0.0
2024-08-28 13:31:00-04:00,151.32000732421875,151.32000732421875,151.32000732421875,151.32000732421875,351,0.0,0.0
2024-08-28 13:35:00-04:00,151.33999633789062,151.33999633789062,151.33999633789062,151.33999633789062,179,0.0,0.0
2024-08-28 13:37:00-04:00,151.35000610351562,151.35000610351562,151.35000610351562,151.35000610351562,188,0.0,0.0
2024-08-28 13:39:00-04:00,151.3350067138672,151.3350067138672,151.3350067138672,151.3350067138672,127,0.0,0.0
2024-08-28 13:41:00-04:00,151.3350067138672,151.3350067138672,151.3350067138672,151.3350067138672,336,0.0,0.0
2024-08-28 13:42:00-04:00,151.3000030517578,151.3300018310547,151.27999877929688,151.27999877929688,1965,0.0,0.0
2024-08-28 13:48:00-04:00,151.32000732421875,151.32000732421875,151.32000732421875,151.32000732421875,636,0.0,0.0
2024-08-28 13:49:00-04:00,151.31500244140625,151.35499572753906,151.27999877929688,151.32000732421875,6767,0.0,0.0
2024-08-28 13:50:00-04:00,151.31500244140625,151.38999938964844,151.3000030517578,151.38999938964844,3172,0.0,0.0
2024-08-28 13:53:00-04:00,151.3800048828125,151.4600067138672,151.3800048828125,151.4499969482422,3159,0.0,0.0
2024-08-28 13:55:00-04:00,151.38999938964844,151.38999938964844,151.375,151.375,732,0.0,0.0
2024-08-28 13:56:00-04:00,151.33999633789062,151.44000244140625,151.27000427246094,151.44000244140625,3886,0.0,0.0
2024-08-28 13:57:00-04:00,151.3699951171875,151.3699951171875,151.31500244140625,151.31500244140625,619,0.0,0.0
2024-08-28 13:58:00-04:00,151.3000030517578,151.3300018310547,151.3000030517578,151.3300018310547,949,0.0,0.0
2024-08-28 13:59:00-04:00,151.3249969482422,151.3249969482422,151.3249969482422,151.3249969482422,226,0.0,0.0
2024-08-28 14:02:00-04:00,151.27000427246094,151.27000427246094,151.27000427246094,151.27000427246094,138,0.0,0.0
2024-08-28 14:03:00-04:00,151.27499389648438,151.27499389648438,151.27499389648438,151.27499389648438,204,0.0,0.0
2024-08-28 14:04:00-04:00,151.27499389648438,151.27499389648438,151.27499389648438,151.27499389648438,184,0.0,0.0
2024-08-28 14:06:00-04:00,151.25,151.25,151.25,151.25,307,0.0,0.0
2024-08-28 14:07:00-04:00,151.35000610351562,151.35000610351562,151.27999877929688,151.27999877929688,664,0.0,0.0
2024-08-28 14:08:00-04:00,151.33999633789062,151.38999938964844,151.33999633789062,151.38999938964844,1099,0.0,0.0
2024-08-28 14:12:00-04:00,151.35000610351562,151.35000610351562,151.35000610351562,151.35000610351562,564,0.0,0.0
2024-08-28 14:16:00-04:00,151.25999450683594,151.25999450683594,151.25999450683594,151.25999450683594,387,0.0,0.0
2024-08-28 14:17:00-04:00,151.3300018310547,151.3699951171875,151.27000427246094,151.35000610351562,3577,0.0,0.0
2024-08-28 14:18:00-04:00,151.3699951171875,151.3699951171875,151.3000030517578,151.3000030517578,377,0.0,0.0
2024-08-28 14:20:00-04:00,151.38999938964844,151.38999938964844,151.34500122070312,151.38999938964844,488,0.0,0.0
2024-08-28 14:21:00-04:00,151.38999938964844,151.47000122070312,151.38999938964844,151.47000122070312,1667,0.0,0.0
2024-08-28 14:28:00-04:00,151.51499938964844,151.51499938964844,151.51499938964844,151.51499938964844,284,0.0,0.0
2024-08-28 14:30:00-04:00,151.35000610351562,151.3699951171875,151.35000610351562,151.3699951171875,203,0.0,0.0
2024-08-28 14:31:00-04:00,151.39999389648438,151.39999389648438,151.3699951171875,151.39999389648438,951,0.0,0.0
2024-08-28 14:34:00-04:00,151.39999389648438,151.4550018310547,151.39999389648438,151.4550018310547,1645,0.0,0.0
2024-08-28 14:38:00-04:00,151.47999572753906,151.47999572753906,151.375,151.44000244140625,826,0.0,0.0
2024-08-28 14:39:00-04:00,151.39999389648438,151.39999389648438,151.39999389648438,151.39999389648438,351,0.0,0.0
2024-08-28 14:42:00-04:00,151.44000244140625,151.44000244140625,151.44000244140625,151.44000244140625,119,0.0,0.0
2024-08-28 14:43:00-04:00,151.44500732421875,151.44500732421875,151.44500732421875,151.44500732421875,200,0.0,0.0
2024-08-28 14:44:00-04:00,151.44500732421875,151.5,151.44500732421875,151.5,1162,0.0,0.0
2024-08-28 14:45:00-04:00,151.5,151.5,151.4949951171875,151.4949951171875,447,0.0,0.0
2024-08-28 14:46:00-04:00,151.4550018310547,151.52000427246094,151.4499969482422,151.52000427246094,5367,0.0,0.0
2024-08-28 14:47:00-04:00,151.52000427246094,151.52000427246094,151.49000549316406,151.50999450683594,1731,0.0,0.0
2024-08-28 14:48:00-04:00,151.52000427246094,151.52999877929688,151.52000427246094,151.52999877929688,555,0.0,0.0
2024-08-28 14:49:00-04:00,151.51499938964844,151.51499938964844,151.47000122070312,151.5,2048,0.0,0.0
2024-08-28 14:50:00-04:00,151.5399932861328,151.61000061035156,151.5399932861328,151.61000061035156,1397,0.0,0.0
2024-08-28 14:51:00-04:00,151.61000061035156,151.61000061035156,151.61000061035156,151.61000061035156,411,0.0,0.0
2024-08-28 14:52:00-04:00,151.67999267578125,151.75,151.67999267578125,151.75,611,0.0,0.0
2024-08-28 14:55:00-04:00,151.83999633789062,151.8699951171875,151.83999633789062,151.8699951171875,785,0.0,0.0
2024-08-28 14:56:00-04:00,151.8800048828125,151.91000366210938,151.8800048828125,151.91000366210938,1058,0.0,0.0
2024-08-28 14:57:00-04:00,151.96499633789062,151.96499633789062,151.96499633789062,151.96499633789062,186,0.0,0.0
2024-08-28 14:58:00-04:00,151.88999938964844,151.88999938964844,151.8800048828125,151.8800048828125,1483,0.0,0.0
2024-08-28 15:05:00-04:00,151.9199981689453,151.9199981689453,151.9199981689453,151.9199981689453,194,0.0,0.0
2024-08-28 15:07:00-04:00,151.9199981689453,151.9199981689453,151.86000061035156,151.86000061035156,594,0.0,0.0
2024-08-28 15:08:00-04:00,151.77000427246094,151.77000427246094,151.77000427246094,151.77000427246094,571,0.0,0.0
2024-08-28 15:11:00-04:00,151.7100067138672,151.7100067138672,151.7100067138672,151.7100067138672,335,0.0,0.0
2024-08-28 15:13:00-04:00,151.67999267578125,151.67999267578125,151.67999267578125,151.67999267578125,402,0.0,0.0
2024-08-28 15:15:00-04:00,151.64999389648438,151.64999389648438,151.64999389648438,151.64999389648438,923,0.0,0.0
2024-08-28 15:20:00-04:00,151.6999969482422,151.6999969482422,151.69000244140625,151.69000244140625,903,0.0,0.0
2024-08-28 15:21:00-04:00,151.64999389648438,151.64999389648438,151.64999389648438,151.64999389648438,186,0.0,0.0
2024-08-28 15:22:00-04:00,151.68499755859375,151.68499755859375,151.64999389648438,151.64999389648438,1534,0.0,0.0
2024-08-28 15:24:00-04:00,151.74000549316406,151.8300018310547,151.74000549316406,151.8300018310547,1639,0.0,0.0
2024-08-28 15:25:00-04:00,151.82000732421875,151.82000732421875,151.82000732421875,151.82000732421875,286,0.0,0.0
2024-08-28 15:27:00-04:00,151.74029541015625,151.89999389648438,151.74029541015625,151.82000732421875,3152,0.0,0.0
2024-08-28 15:30:00-04:00,151.7949981689453,151.84500122070312,151.7949981689453,151.84500122070312,590,0.0,0.0
2024-08-28 15:31:00-04:00,151.77999877929688,151.77999877929688,151.77999877929688,151.77999877929688,214,0.0,0.0
2024-08-28 15:32:00-04:00,151.82000732421875,151.82000732421875,151.82000732421875,151.82000732421875,120,0.0,0.0
2024-08-28 15:33:00-04:00,151.77000427246094,151.77000427246094,151.77000427246094,151.77000427246094,958,0.0,0.0
2024-08-28 15:35:00-04:00,151.72999572753906,151.72999572753906,151.6510009765625,151.6510009765625,1184,0.0,0.0
2024-08-28 15:36:00-04:00,151.69000244140625,151.69000244140625,151.69000244140625,151.69000244140625,309,0.0,0.0
2024-08-28 15:37:00-04:00,151.64999389648438,151.64999389648438,151.55999755859375,151.60000610351562,978,0.0,0.0
2024-08-28 15:38:00-04:00,151.59500122070312,151.59500122070312,151.59500122070312,151.59500122070312,278,0.0,0.0
2024-08-28 15:39:00-04:00,151.58999633789062,151.58999633789062,151.54100036621094,151.54100036621094,781,0.0,0.0
2024-08-28 15:40:00-04:00,151.5749969482422,151.5749969482422,151.5399932861328,151.5749969482422,1240,0.0,0.0
2024-08-28 15:41:00-04:00,151.5500030517578,151.5500030517578,151.47500610351562,151.52000427246094,2613,0.0,0.0
2024-08-28 15:42:00-04:00,151.50999450683594,151.50999450683594,151.50999450683594,151.50999450683594,495,0.0,0.0
2024-08-28 15:43:00-04:00,151.4980010986328,151.4980010986328,151.4980010986328,151.4980010986328,434,0.0,0.0
2024-08-28 15:44:00-04:00,151.43499755859375,151.43499755859375,151.34500122070312,151.34500122070312,588,0.0,0.0
2024-08-28 15:45:00-04:00,151.44000244140625,151.4499969482422,151.44000244140625,151.4499969482422,1418,0.0,0.0
2024-08-28 15:46:00-04:00,151.36500549316406,151.39999389648438,151.36500549316406,151.39999389648438,1475,0.0,0.0
2024-08-28 15:47:00-04:00,151.52000427246094,151.5399932861328,151.49000549316406,151.5399932861328,2154,0.0,0.0
2024-08-28 15:48:00-04:00,151.52000427246094,151.52000427246094,151.43899536132812,151.50999450683594,1124,0.0,0.0
2024-08-28 15:49:00-04:00,151.50999450683594,151.52999877929688,151.50999450683594,151.52999877929688,1203,0.0,0.0
2024-08-28 15:50:00-04:00,151.55999755859375,151.71499633789062,151.49000549316406,151.71499633789062,8247,0.0,0.0
2024-08-28 15:51:00-04:00,151.71499633789062,151.77000427246094,151.6699981689453,151.77000427246094,1560,0.0,0.0
2024-08-28 15:52:00-04:00,151.78500366210938,151.8000030517578,151.7570037841797,151.8000030517578,1544,0.0,0.0
2024-08-28 15:53:00-04:00,151.78500366210938,151.78500366210938,151.72000122070312,151.73500061035156,1082,0.0,0.0
2024-08-28 15:54:00-04:00,151.67999267578125,151.67999267578125,151.60000610351562,151.6300048828125,1505,0.0,0.0
2024-08-28 15:55:00-04:00,151.64500427246094,151.6699981689453,151.58999633789062,151.61000061035156,2062,0.0,0.0
2024-08-28 15:56:00-04:00,151.6300048828125,151.6699981689453,151.5500030517578,151.5500030517578,2228,0.0,0.0
2024-08-28 15:57:00-04:00,151.5500030517578,151.61000061035156,151.5500030517578,151.5500030517578,4335,0.0,0.0
2024-08-28 15:58:00-04:00,151.5500030517578,151.64999389648438,151.52999877929688,151.61000061035156,4540,0.0,0.0
2024-08-28 15:59:00-04:00,151.5500030517578,151.6300048828125,151.4600067138672,151.50999450683594,8632,0.0,0.0
2024-08-29 09:30:00-04:00,152.5500030517578,152.5500030517578,152.5500030517578,152.5500030517578,1689,0.0,0.0
2024-08-29 09:50:00-04:00,151.22999572753906,151.22999572753906,151.22999572753906,151.22999572753906,426,0.0,0.0
2024-08-29 09:51:00-04:00,151.22999572753906,151.47000122070312,151.2100067138672,151.47000122070312,1628,0.0,0.0
2024-08-29 09:59:00-04:00,151.51499938964844,151.51499938964844,151.4499969482422,151.4499969482422,315,0.0,0.0
2024-08-29 10:00:00-04:00,151.61000061035156,151.67999267578125,151.61000061035156,151.67999267578125,823,0.0,0.0
2024-08-29 10:02:00-04:00,151.6750030517578,152.10499572753906,151.6750030517578,152.10499572753906,3153,0.0,0.0
2024-08-29 10:07:00-04:00,152.25,152.47999572753906,152.25,152.3249969482422,3080,0.0,0.0
2024-08-29 10:08:00-04:00,152.52499389648438,152.52499389648438,152.52499389648438,152.52499389648438,1368,0.0,0.0
2024-08-29 10:16:00-04:00,152.6199951171875,152.6199951171875,152.6199951171875,152.6199951171875,380,0.0,0.0
2024-08-29 10:17:00-04:00,152.6300048828125,152.6300048828125,152.6300048828125,152.6300048828125,8013,0.0,0.0
2024-08-29 10:18:00-04:00,152.4600067138672,152.5500030517578,152.4600067138672,152.5500030517578,1121,0.0,0.0
2024-08-29 10:20:00-04:00,152.64999389648438,152.77999877929688,152.6199951171875,152.6750030517578,1739,0.0,0.0
2024-08-29 10:22:00-04:00,152.7899932861328,152.7899932861328,152.7899932861328,152.7899932861328,1112,0.0,0.0
2024-08-29 10:26:00-04:00,152.91000366210938,152.91000366210938,152.91000366210938,152.91000366210938,299,0.0,0.0
2024-08-29 10:27:00-04:00,152.8000030517578,152.8000030517578,152.8000030517578,152.8000030517578,974,0.0,0.0
2024-08-29 10:32:00-04:00,152.7550048828125,152.7550048828125,152.6741943359375,152.6741943359375,1150,0.0,0.0
2024-08-29 10:37:00-04:00,152.76499938964844,152.76499938964844,152.76499938964844,152.76499938964844,439,0.0,0.0
2024-08-29 10:39:00-04:00,152.7899932861328,152.7899932861328,152.7899932861328,152.7899932861328,433,0.0,0.0
2024-08-29 10:42:00-04:00,152.75,152.75,152.75,152.75,208,0.0,0.0
2024-08-29 10:43:00-04:00,152.78500366210938,152.78500366210938,152.78500366210938,152.78500366210938,625,0.0,0.0
2024-08-29 10:45:00-04:00,152.7530975341797,152.86500549316406,152.7530975341797,152.86500549316406,1090,0.0,0.0
2024-08-29 10:47:00-04:00,152.75,152.75,152.75,152.75,186,0.0,0.0
2024-08-29 10:48:00-04:00,152.78500366210938,152.78500366210938,152.78500366210938,152.78500366210938,249,0.0,0.0
2024-08-29 10:49:00-04:00,152.7449951171875,152.7449951171875,152.7449951171875,152.7449951171875,976,0.0,0.0
2024-08-29 10:56:00-04:00,152.74000549316406,152.74000549316406,152.74000549316406,152.74000549316406,124,0.0,0.0
2024-08-29 10:57:00-04:00,152.8000030517578,152.8000030517578,152.8000030517578,152.8000030517578,703,0.0,0.0
2024-08-29 10:58:00-04:00,152.7100067138672,152.7100067138672,152.7100067138672,152.7100067138672,145,0.0,0.0
2024-08-29 10:59:00-04:00,152.64999389648438,152.74000549316406,152.64999389648438,152.74000549316406,1444,0.0,0.0
2024-08-29 11:04:00-04:00,152.7899932861328,152.7899932861328,152.7899932861328,152.7899932861328,331,0.0,0.0
2024-08-29 11:05:00-04:00,152.6999969482422,152.75,152.6999969482422,152.75,513,0.0,0.0
2024-08-29 11:06:00-04:00,152.6699981689453,152.6699981689453,152.6699981689453,152.6699981689453,437,0.0,0.0
2024-08-29 11:09:00-04:00,152.6649932861328,152.6649932861328,152.6649932861328,152.6649932861328,260,0.0,0.0
2024-08-29 11:12:00-04:00,152.50999450683594,152.63999938964844,152.50999450683594,152.63999938964844,1132,0.0,0.0
2024-08-29 11:21:00-04:00,152.4600067138672,152.4600067138672,152.4600067138672,152.4600067138672,1467,0.0,0.0
2024-08-29 11:25:00-04:00,152.58999633789062,152.58999633789062,152.58999633789062,152.58999633789062,279,0.0,0.0
2024-08-29 11:27:00-04:00,152.50210571289062,152.50210571289062,152.50210571289062,152.50210571289062,435,0.0,0.0
2024-08-29 11:29:00-04:00,152.52999877929688,152.52999877929688,152.52999877929688,152.52999877929688,798,0.0,0.0
2024-08-29 11:32:00-04:00,152.52000427246094,152.52999877929688,152.52000427246094,152.52999877929688,954,0.0,0.0
2024-08-29 11:37:00-04:00,152.50999450683594,152.50999450683594,152.50999450683594,152.50999450683594,273,0.0,0.0
2024-08-29 11:40:00-04:00,152.49000549316406,152.49000549316406,152.49000549316406,152.49000549316406,212,0.0,0.0
2024-08-29 11:43:00-04:00,152.5,152.5,152.5,152.5,408,0.0,0.0
2024-08-29 11:44:00-04:00,152.5,152.5,152.5,152.5,253,0.0,0.0
2024-08-29 11:45:00-04:00,152.51699829101562,152.51699829101562,152.51699829101562,152.51699829101562,423,0.0,0.0
2024-08-29 11:52:00-04:00,152.5023956298828,152.5023956298828,152.5023956298828,152.5023956298828,453,0.0,0.0
2024-08-29 11:58:00-04:00,152.55999755859375,152.6300048828125,152.55999755859375,152.60000610351562,1869,0.0,0.0
2024-08-29 12:07:00-04:00,152.57859802246094,152.5850067138672,152.57859802246094,152.5850067138672,597,0.0,0.0
2024-08-29 12:13:00-04:00,152.57000732421875,152.57000732421875,152.57000732421875,152.57000732421875,318,0.0,0.0
2024-08-29 12:16:00-04:00,152.52999877929688,152.5500030517578,152.52999877929688,152.5500030517578,754,0.0,0.0
2024-08-29 12:18:00-04:00,152.4600067138672,152.4600067138672,152.4600067138672,152.4600067138672,339,0.0,0.0
2024-08-29 12:21:00-04:00,152.3699951171875,152.3699951171875,152.3699951171875,152.3699951171875,345,0.0,0.0
2024-08-29 12:24:00-04:00,152.4250030517578,152.52000427246094,152.4250030517578,152.52000427246094,1121,0.0,0.0
2024-08-29 12:25:00-04:00,152.47000122070312,152.47000122070312,152.4600067138672,152.4600067138672,989,0.0,0.0
2024-08-29 12:30:00-04:00,152.39999389648438,152.39999389648438,152.39999389648438,152.39999389648438,362,0.0,0.0
2024-08-29 12:32:00-04:00,152.3000030517578,152.3000030517578,152.2700958251953,152.2700958251953,203,0.0,0.0
2024-08-29 12:33:00-04:00,152.27999877929688,152.2899932861328,152.27999877929688,152.2899932861328,354,0.0,0.0
2024-08-29 12:34:00-04:00,152.22999572753906,152.22999572753906,152.22999572753906,152.22999572753906,303,0.0,0.0
2024-08-29 12:35:00-04:00,152.1999969482422,152.1999969482422,152.1999969482422,152.1999969482422,267,0.0,0.0
2024-08-29 12:36:00-04:00,152.10009765625,152.10009765625,152.10009765625,152.10009765625,414,0.0,0.0
2024-08-29 12:37:00-04:00,152.19500732421875,152.19500732421875,152.1300048828125,152.1300048828125,336,0.0,0.0
2024-08-29 12:39:00-04:00,152.14999389648438,152.14999389648438,152.14999389648438,152.14999389648438,448,0.0,0.0
2024-08-29 12:41:00-04:00,152.13999938964844,152.14999389648438,152.13999938964844,152.14999389648438,392,0.0,0.0
2024-08-29 12:42:00-04:00,152.27000427246094,152.30499267578125,152.27000427246094,152.30499267578125,1408,0.0,0.0
2024-08-29 12:44:00-04:00,152.27000427246094,152.27000427246094,152.27000427246094,152.27000427246094,375,0.0,0.0
2024-08-29 12:45:00-04:00,152.2949981689453,152.2949981689453,152.27999877929688,152.27999877929688,314,0.0,0.0
2024-08-29 12:46:00-04:00,152.25999450683594,152.25999450683594,152.2100067138672,152.22000122070312,775,0.0,0.0
2024-08-29 12:47:00-04:00,152.25,152.25,152.25,152.25,417,0.0,0.0
2024-08-29 12:49:00-04:00,152.22740173339844,152.22740173339844,152.10000610351562,152.2100067138672,698,0.0,0.0
2024-08-29 12:50:00-04:00,152.10000610351562,152.10000610351562,152.10000610351562,152.10000610351562,231,0.0,0.0
2024-08-29 12:51:00-04:00,152.1199951171875,152.1199951171875,152.1199951171875,152.1199951171875,267,0.0,0.0
2024-08-29 12:53:00-04:00,152.1199951171875,152.22999572753906,152.1199951171875,152.22999572753906,493,0.0,0.0
2024-08-29 12:54:00-04:00,152.27000427246094,152.2899932861328,152.27000427246094,152.2899932861328,1060,0.0,0.0
2024-08-29 12:57:00-04:00,152.35000610351562,152.35000610351562,152.3300018310547,152.3300018310547,1212,0.0,0.0
2024-08-29 13:02:00-04:00,152.25999450683594,152.25999450683594,152.25999450683594,152.25999450683594,240,0.0,0.0
2024-08-29 13:04:00-04:00,152.3800048828125,152.3800048828125,152.3800048828125,152.3800048828125,420,0.0,0.0
2024-08-29 13:06:00-04:00,152.35000610351562,152.35000610351562,152.35000610351562,152.35000610351562,789,0.0,0.0
2024-08-29 13:16:00-04:00,152.4149932861328,152.4149932861328,152.4149932861328,152.4149932861328,1116,0.0,0.0
2024-08-29 13:27:00-04:00,152.51499938964844,152.51499938964844,152.4949951171875,152.4949951171875,706,0.0,0.0
2024-08-29 13:28:00-04:00,152.50999450683594,152.50999450683594,152.50999450683594,152.50999450683594,683,0.0,0.0
2024-08-29 13:35:00-04:00,152.5,152.52999877929688,152.5,152.52999877929688,1712,0.0,0.0
2024-08-29 13:51:00-04:00,152.67999267578125,152.67999267578125,152.67999267578125,152.67999267578125,523,0.0,0.0
2024-08-29 13:59:00-04:00,152.55999755859375,152.55999755859375,152.55999755859375,152.55999755859375,219,0.0,0.0
2024-08-29 14:00:00-04:00,152.52999877929688,152.5500030517578,152.4199981689453,152.4199981689453,990,0.0,0.0
2024-08-29 14:01:00-04:00,152.39999389648438,152.5,152.39999389648438,152.5,784,0.0,0.0
2024-08-29 14:12:00-04:00,152.50999450683594,152.56500244140625,152.50999450683594,152.56500244140625,1632,0.0,0.0
2024-08-29 14:16:00-04:00,152.47999572753906,152.52000427246094,152.4499969482422,152.52000427246094,1111,0.0,0.0
2024-08-29 14:19:00-04:00,152.42999267578125,152.42999267578125,152.42999267578125,152.42999267578125,177,0.0,0.0
2024-08-29 14:20:00-04:00,152.30999755859375,152.30999755859375,152.30999755859375,152.30999755859375,300,0.0,0.0
2024-08-29 14:22:00-04:00,152.3000030517578,152.36500549316406,152.3000030517578,152.36500549316406,1393,0.0,0.0
2024-08-29 14:23:00-04:00,152.36500549316406,152.36500549316406,152.36500549316406,152.36500549316406,199,0.0,0.0
2024-08-29 14:25:00-04:00,152.30999755859375,152.30999755859375,152.27000427246094,152.2899932861328,1004,0.0,0.0
2024-08-29 14:28:00-04:00,152.1199951171875,152.1199951171875,152.1199951171875,152.1199951171875,209,0.0,0.0
2024-08-29 14:30:00-04:00,152.0,152.0,151.97999572753906,151.97999572753906,1130,0.0,0.0
2024-08-29 14:33:00-04:00,151.9199981689453,151.9199981689453,151.9199981689453,151.9199981689453,183,0.0,0.0
2024-08-29 14:35:00-04:00,152.02499389648438,152.02499389648438,152.02499389648438,152.02499389648438,549,0.0,0.0
2024-08-29 14:38:00-04:00,152.0,152.0,151.99000549316406,152.0,710,0.0,0.0
2024-08-29 14:39:00-04:00,151.9949951171875,151.9949951171875,151.9949951171875,151.9949951171875,375,0.0,0.0
2024-08-29 14:40:00-04:00,152.0850067138672,152.0850067138672,152.0850067138672,152.0850067138672,321,0.0,0.0
2024-08-29 14:42:00-04:00,151.89999389648438,151.97500610351562,151.89999389648438,151.97500610351562,656,0.0,0.0
2024-08-29 14:43:00-04:00,151.9199981689453,151.9199981689453,151.9199981689453,151.9199981689453,463,0.0,0.0
2024-08-29 14:45:00-04:00,151.9199981689453,151.9199981689453,151.9199981689453,151.9199981689453,875,0.0,0.0
2024-08-29 14:46:00-04:00,151.97000122070312,151.97999572753906,151.97000122070312,151.97000122070312,1804,0.0,0.0
2024-08-29 14:50:00-04:00,151.89500427246094,151.99000549316406,151.89500427246094,151.97999572753906,5388,0.0,0.0
2024-08-29 14:51:00-04:00,151.875,151.875,151.80499267578125,151.80499267578125,1317,0.0,0.0
2024-08-29 14:54:00-04:00,151.92999267578125,151.97999572753906,151.9199981689453,151.9550018310547,2140,0.0,0.0
2024-08-29 14:56:00-04:00,151.92799377441406,151.92799377441406,151.92799377441406,151.92799377441406,514,0.0,0.0
2024-08-29 14:57:00-04:00,151.94000244140625,151.94000244140625,151.94000244140625,151.94000244140625,116,0.0,0.0
2024-08-29 14:58:00-04:00,151.94000244140625,151.94000244140625,151.94000244140625,151.94000244140625,609,0.0,0.0
2024-08-29 15:00:00-04:00,151.9550018310547,151.9550018310547,151.9550018310547,151.9550018310547,621,0.0,0.0
2024-08-29 15:04:00-04:00,152.02499389648438,152.06500244140625,152.02499389648438,152.06500244140625,880,0.0,0.0
2024-08-29 15:07:00-04:00,152.00999450683594,152.00999450683594,152.0050048828125,152.0050048828125,608,0.0,0.0
2024-08-29 15:08:00-04:00,152.0,152.0,151.9949951171875,152.0,1063,0.0,0.0
2024-08-29 15:11:00-04:00,152.05999755859375,152.16000366210938,152.05999755859375,152.14999389648438,1308,0.0,0.0
2024-08-29 15:14:00-04:00,152.14999389648438,152.14999389648438,152.14999389648438,152.14999389648438,327,0.0,0.0
2024-08-29 15:16:00-04:00,152.2100067138672,152.2100067138672,152.2100067138672,152.2100067138672,303,0.0,0.0
2024-08-29 15:17:00-04:00,152.25,152.25,152.25,152.25,339,0.0,0.0
2024-08-29 15:18:00-04:00,152.23899841308594,152.23899841308594,152.23899841308594,152.23899841308594,134,0.0,0.0
2024-08-29 15:19:00-04:00,152.22999572753906,152.22999572753906,152.22999572753906,152.22999572753906,517,0.0,0.0
2024-08-29 15:20:00-04:00,152.22500610351562,152.22500610351562,152.22500610351562,152.22500610351562,347,0.0,0.0
2024-08-29 15:22:00-04:00,152.1999969482422,152.2100067138672,152.1999969482422,152.1999969482422,1307,0.0,0.0
2024-08-29 15:25:00-04:00,152.14190673828125,152.32000732421875,152.14190673828125,152.23500061035156,1258,0.0,0.0
2024-08-29 15:29:00-04:00,152.31500244140625,152.31500244140625,152.31500244140625,152.31500244140625,253,0.0,0.0
2024-08-29 15:30:00-04:00,152.3209991455078,152.3209991455078,152.3209991455078,152.3209991455078,527,0.0,0.0
2024-08-29 15:31:00-04:00,152.32000732421875,152.3300018310547,152.22999572753906,152.22999572753906,2498,0.0,0.0
2024-08-29 15:32:00-04:00,152.24000549316406,152.24000549316406,152.24000549316406,152.24000549316406,675,0.0,0.0
2024-08-29 15:35:00-04:00,152.22999572753906,152.22999572753906,152.22999572753906,152.22999572753906,1189,0.0,0.0
2024-08-29 15:37:00-04:00,152.1999969482422,152.25,152.14999389648438,152.14999389648438,4533,0.0,0.0
2024-08-29 15:38:00-04:00,152.14999389648438,152.14999389648438,152.10000610351562,152.11000061035156,846,0.0,0.0
2024-08-29 15:39:00-04:00,152.0800018310547,152.0800018310547,151.97999572753906,151.9949951171875,1941,0.0,0.0
2024-08-29 15:40:00-04:00,151.968994140625,151.968994140625,151.9600067138672,151.9600067138672,571,0.0,0.0
2024-08-29 15:41:00-04:00,151.99000549316406,152.08999633789062,151.99000549316406,152.08999633789062,1395,0.0,0.0
2024-08-29 15:42:00-04:00,152.09500122070312,152.13499450683594,152.09500122070312,152.10000610351562,1200,0.0,0.0
2024-08-29 15:43:00-04:00,152.0399932861328,152.0399932861328,152.0399932861328,152.0399932861328,716,0.0,0.0
2024-08-29 15:44:00-04:00,151.9499969482422,152.02999877929688,151.9499969482422,152.02999877929688,810,0.0,0.0
2024-08-29 15:45:00-04:00,151.97999572753906,151.97999572753906,151.97999572753906,151.97999572753906,468,0.0,0.0
2024-08-29 15:46:00-04:00,152.05999755859375,152.05999755859375,152.02000427246094,152.0399932861328,1454,0.0,0.0
2024-08-29 15:47:00-04:00,152.0,152.0399932861328,152.0,152.0,770,0.0,0.0
2024-08-29 15:48:00-04:00,152.05499267578125,152.05499267578125,152.05499267578125,152.05499267578125,604,0.0,0.0
2024-08-29 15:49:00-04:00,152.11000061035156,152.1199951171875,152.0800018310547,152.0800018310547,1256,0.0,0.0
2024-08-29 15:50:00-04:00,152.05380249023438,152.14500427246094,152.00999450683594,152.02000427246094,3280,0.0,0.0
2024-08-29 15:51:00-04:00,152.11000061035156,152.11000061035156,152.05999755859375,152.05999755859375,1587,0.0,0.0
2024-08-29 15:52:00-04:00,152.0500030517578,152.11000061035156,152.04840087890625,152.08999633789062,1838,0.0,0.0
2024-08-29 15:53:00-04:00,152.08399963378906,152.13499450683594,152.0399932861328,152.1300048828125,2497,0.0,0.0
2024-08-29 15:54:00-04:00,152.1300048828125,152.13999938964844,152.0399932861328,152.0800018310547,2464,0.0,0.0
2024-08-29 15:55:00-04:00,152.0749969482422,152.22000122070312,152.0749969482422,152.19500732421875,3942,0.0,0.0
2024-08-29 15:56:00-04:00,152.21499633789062,152.28500366210938,152.20700073242188,152.26499938964844,3054,0.0,0.0
2024-08-29 15:57:00-04:00,152.27000427246094,152.27000427246094,152.19000244140625,152.19000244140625,2678,0.0,0.0
2024-08-29 15:58:00-04:00,152.1649932861328,152.23500061035156,152.1649932861328,152.22999572753906,4103,0.0,0.0
2024-08-29 15:59:00-04:00,152.25,152.3000030517578,152.17999267578125,152.27000427246094,6286,0.0,0.0
2024-08-30 09:30:00-04:00,152.1999969482422,152.1999969482422,152.1999969482422,152.1999969482422,2769,0.0,0.0
2024-08-30 09:31:00-04:00,152.2899932861328,152.32000732421875,152.22000122070312,152.32000732421875,1103,0.0,0.0
2024-08-30 09:37:00-04:00,152.66000366210938,152.66000366210938,152.625,152.625,2793,0.0,0.0
2024-08-30 09:41:00-04:00,152.6699981689453,152.92999267578125,152.6699981689453,152.92999267578125,408,0.0,0.0
2024-08-30 09:45:00-04:00,152.68499755859375,152.68499755859375,152.68499755859375,152.68499755859375,112,0.0,0.0
2024-08-30 09:46:00-04:00,152.5449981689453,152.5449981689453,152.5449981689453,152.5449981689453,135,0.0,0.0
2024-08-30 09:49:00-04:00,152.51499938964844,152.51499938964844,152.51499938964844,152.51499938964844,247,0.0,0.0
2024-08-30 09:50:00-04:00,152.36000061035156,152.39999389648438,152.33999633789062,152.33999633789062,858,0.0,0.0
2024-08-30 10:02:00-04:00,152.85000610351562,152.85000610351562,152.7100067138672,152.7100067138672,378,0.0,0.0
2024-08-30 10:04:00-04:00,152.5500030517578,152.5500030517578,152.5500030517578,152.5500030517578,430,0.0,0.0
2024-08-30 10:08:00-04:00,152.99000549316406,153.0,152.99000549316406,153.0,2140,0.0,0.0
2024-08-30 10:09:00-04:00,153.11000061035156,153.11000061035156,153.11000061035156,153.11000061035156,130,0.0,0.0
2024-08-30 10:11:00-04:00,153.22999572753906,153.22999572753906,153.22999572753906,153.22999572753906,182,0.0,0.0
2024-08-30 10:13:00-04:00,153.0500030517578,153.0800018310547,153.0500030517578,153.0800018310547,888,0.0,0.0
2024-08-30 10:15:00-04:00,153.125,153.125,153.0500030517578,153.0500030517578,772,0.0,0.0
2024-08-30 10:26:00-04:00,153.07000732421875,153.07000732421875,153.07000732421875,153.07000732421875,493,0.0,0.0
2024-08-30 10:27:00-04:00,152.9199981689453,152.9199981689453,152.9199981689453,152.9199981689453,101,0.0,0.0
2024-08-30 10:28:00-04:00,152.9499969482422,152.9499969482422,152.9499969482422,152.9499969482422,333,0.0,0.0
2024-08-30 10:33:00-04:00,152.92999267578125,152.92999267578125,152.92999267578125,152.92999267578125,622,0.0,0.0
2024-08-30 10:37:00-04:00,152.8350067138672,152.8800048828125,152.8350067138672,152.8800048828125,253,0.0,0.0
2024-08-30 10:38:00-04:00,152.8249969482422,152.8249969482422,152.8249969482422,152.8249969482422,347,0.0,0.0
2024-08-30 10:42:00-04:00,152.97000122070312,152.97000122070312,152.97000122070312,152.97000122070312,523,0.0,0.0
2024-08-30 10:47:00-04:00,153.07240295410156,153.07240295410156,153.07240295410156,153.07240295410156,338,0.0,0.0
2024-08-30 10:48:00-04:00,152.82000732421875,152.86500549316406,152.82000732421875,152.86500549316406,310,0.0,0.0
2024-08-30 10:49:00-04:00,152.86500549316406,152.86500549316406,152.86500549316406,152.86500549316406,173,0.0,0.0
2024-08-30 10:50:00-04:00,152.82000732421875,152.82000732421875,152.82000732421875,152.82000732421875,283,0.0,0.0
2024-08-30 10:52:00-04:00,152.80999755859375,152.9600067138672,152.80999755859375,152.9600067138672,471,0.0,0.0
2024-08-30 10:55:00-04:00,152.80999755859375,152.80999755859375,152.80999755859375,152.80999755859375,109,0.0,0.0
2024-08-30 10:56:00-04:00,152.80999755859375,152.80999755859375,152.80999755859375,152.80999755859375,368,0.0,0.0
2024-08-30 11:04:00-04:00,152.9093017578125,152.9093017578125,152.9093017578125,152.9093017578125,269,0.0,0.0
2024-08-30 11:07:00-04:00,152.85000610351562,152.85000610351562,152.78500366210938,152.84500122070312,598,0.0,0.0
2024-08-30 11:13:00-04:00,152.85499572753906,152.85499572753906,152.85499572753906,152.85499572753906,392,0.0,0.0
2024-08-30 11:18:00-04:00,152.72000122070312,152.72000122070312,152.72000122070312,152.72000122070312,281,0.0,0.0
2024-08-30 11:20:00-04:00,152.6300048828125,152.6300048828125,152.6300048828125,152.6300048828125,132,0.0,0.0
2024-08-30 11:22:00-04:00,152.63999938964844,152.72999572753906,152.63999938964844,152.64999389648438,533,0.0,0.0
2024-08-30 11:24:00-04:00,152.74000549316406,152.74000549316406,152.74000549316406,152.74000549316406,413,0.0,0.0
2024-08-30 11:26:00-04:00,152.67999267578125,152.67999267578125,152.38999938964844,152.38999938964844,706,0.0,0.0
2024-08-30 11:28:00-04:00,152.30999755859375,152.30999755859375,152.30999755859375,152.30999755859375,258,0.0,0.0
2024-08-30 11:31:00-04:00,152.25999450683594,152.32000732421875,152.25999450683594,152.32000732421875,312,0.0,0.0
2024-08-30 11:32:00-04:00,152.25,152.25,152.25,152.25,283,0.0,0.0
2024-08-30 11:33:00-04:00,152.1199951171875,152.1199951171875,152.1199951171875,152.1199951171875,529,0.0,0.0
2024-08-30 11:38:00-04:00,152.1199951171875,152.2100067138672,152.1199951171875,152.2100067138672,832,0.0,0.0
2024-08-30 11:52:00-04:00,152.11000061035156,152.11000061035156,152.11000061035156,152.11000061035156,175,0.0,0.0
2024-08-30 11:54:00-04:00,152.39500427246094,152.39500427246094,152.39500427246094,152.39500427246094,956,0.0,0.0
2024-08-30 12:00:00-04:00,152.17999267578125,152.22999572753906,152.17999267578125,152.22999572753906,443,0.0,0.0
2024-08-30 12:01:00-04:00,152.02999877929688,152.02999877929688,152.02999877929688,152.02999877929688,296,0.0,0.0
2024-08-30 12:05:00-04:00,152.22000122070312,152.3800048828125,152.22000122070312,152.3699951171875,2048,0.0,0.0
2024-08-30 12:16:00-04:00,152.30999755859375,152.36000061035156,152.30999755859375,152.36000061035156,430,0.0,0.0
2024-08-30 12:18:00-04:00,152.3800048828125,152.3800048828125,152.3800048828125,152.3800048828125,158,0.0,0.0
2024-08-30 12:19:00-04:00,152.2899932861328,152.44000244140625,152.2899932861328,152.44000244140625,405,0.0,0.0
2024-08-30 12:21:00-04:00,152.27999877929688,152.32000732421875,152.27999877929688,152.31500244140625,625,0.0,0.0
2024-08-30 12:26:00-04:00,152.18670654296875,152.18670654296875,152.18670654296875,152.18670654296875,789,0.0,0.0
2024-08-30 12:28:00-04:00,151.99000549316406,152.07749938964844,151.91000366210938,151.92999267578125,1441,0.0,0.0
2024-08-30 12:34:00-04:00,151.64999389648438,151.64999389648438,151.64999389648438,151.64999389648438,389,0.0,0.0
2024-08-30 12:35:00-04:00,151.63999938964844,151.63999938964844,151.63999938964844,151.63999938964844,235,0.0,0.0
2024-08-30 12:36:00-04:00,151.63999938964844,151.63999938964844,151.63999938964844,151.63999938964844,532,0.0,0.0
2024-08-30 12:40:00-04:00,151.67520141601562,151.67520141601562,151.67520141601562,151.67520141601562,424,0.0,0.0
2024-08-30 12:41:00-04:00,151.69000244140625,151.6999969482422,151.69000244140625,151.6999969482422,1069,0.0,0.0
2024-08-30 12:49:00-04:00,151.84500122070312,151.84500122070312,151.84500122070312,151.84500122070312,239,0.0,0.0
2024-08-30 12:50:00-04:00,151.81500244140625,151.81500244140625,151.81500244140625,151.81500244140625,591,0.0,0.0
2024-08-30 13:03:00-04:00,151.93499755859375,151.93499755859375,151.93499755859375,151.93499755859375,451,0.0,0.0
2024-08-30 13:05:00-04:00,151.85000610351562,151.85000610351562,151.85000610351562,151.85000610351562,791,0.0,0.0
2024-08-30 13:12:00-04:00,151.7550048828125,151.7550048828125,151.7550048828125,151.7550048828125,130,0.0,0.0
2024-08-30 13:13:00-04:00,151.8800048828125,152.00999450683594,151.8800048828125,152.00999450683594,1254,0.0,0.0
2024-08-30 13:23:00-04:00,151.91000366210938,151.9199981689453,151.91000366210938,151.9199981689453,782,0.0,0.0
2024-08-30 13:29:00-04:00,151.90499877929688,151.90499877929688,151.90499877929688,151.90499877929688,208,0.0,0.0
2024-08-30 13:35:00-04:00,151.89999389648438,151.89999389648438,151.89999389648438,151.89999389648438,122,0.0,0.0
2024-08-30 13:36:00-04:00,151.82000732421875,151.82000732421875,151.82000732421875,151.82000732421875,183,0.0,0.0
2024-08-30 13:37:00-04:00,151.8000030517578,151.8000030517578,151.8000030517578,151.8000030517578,398,0.0,0.0
2024-08-30 13:39:00-04:00,151.80999755859375,151.89999389648438,151.80999755859375,151.89999389648438,358,0.0,0.0
2024-08-30 13:42:00-04:00,151.8800048828125,151.8800048828125,151.8800048828125,151.8800048828125,102,0.0,0.0
2024-08-30 13:43:00-04:00,151.8000030517578,151.8000030517578,151.8000030517578,151.8000030517578,290,0.0,0.0
2024-08-30 13:44:00-04:00,151.88999938964844,151.88999938964844,151.88999938964844,151.88999938964844,832,0.0,0.0
2024-08-30 13:49:00-04:00,151.99000549316406,152.02999877929688,151.99000549316406,152.00999450683594,1946,0.0,0.0
2024-08-30 14:00:00-04:00,151.97999572753906,151.97999572753906,151.97999572753906,151.97999572753906,373,0.0,0.0
2024-08-30 14:03:00-04:00,152.0399932861328,152.0399932861328,152.03500366210938,152.03500366210938,608,0.0,0.0
2024-08-30 14:06:00-04:00,152.03480529785156,152.03480529785156,152.03480529785156,152.03480529785156,247,0.0,0.0
2024-08-30 14:07:00-04:00,152.0500030517578,152.1199951171875,152.0500030517578,152.05999755859375,1617,0.0,0.0
2024-08-30 14:08:00-04:00,152.0399932861328,152.13999938964844,152.0399932861328,152.13999938964844,510,0.0,0.0
2024-08-30 14:11:00-04:00,152.13999938964844,152.14500427246094,152.1199951171875,152.14500427246094,1597,0.0,0.0
2024-08-30 14:25:00-04:00,152.1649932861328,152.1649932861328,152.1649932861328,152.1649932861328,238,0.0,0.0
2024-08-30 14:28:00-04:00,152.1300048828125,152.1300048828125,152.1300048828125,152.1300048828125,970,0.0,0.0
2024-08-30 14:35:00-04:00,152.11500549316406,152.11500549316406,152.11500549316406,152.11500549316406,326,0.0,0.0
2024-08-30 14:36:00-04:00,152.11500549316406,152.11500549316406,152.11500549316406,152.11500549316406,102,0.0,0.0
2024-08-30 14:38:00-04:00,152.1699981689453,152.1699981689453,152.1699981689453,152.1699981689453,666,0.0,0.0
2024-08-30 14:40:00-04:00,152.2100067138672,152.23500061035156,152.2100067138672,152.23500061035156,404,0.0,0.0
2024-08-30 14:41:00-04:00,152.24000549316406,152.30999755859375,152.24000549316406,152.24000549316406,1092,0.0,0.0
2024-08-30 14:45:00-04:00,152.3300018310547,152.35000610351562,152.3300018310547,152.35000610351562,324,0.0,0.0
2024-08-30 14:46:00-04:00,152.44000244140625,152.44000244140625,152.44000244140625,152.44000244140625,236,0.0,0.0
2024-08-30 14:47:00-04:00,152.39999389648438,152.39999389648438,152.39999389648438,152.39999389648438,245,0.0,0.0
2024-08-30 14:49:00-04:00,152.44000244140625,152.5,152.44000244140625,152.5,596,0.0,0.0
2024-08-30 14:54:00-04:00,152.55499267578125,152.55499267578125,152.55499267578125,152.55499267578125,244,0.0,0.0
2024-08-30 14:57:00-04:00,152.5500030517578,152.64999389648438,152.5500030517578,152.64999389648438,877,0.0,0.0
2024-08-30 15:01:00-04:00,152.5272979736328,152.55999755859375,152.5272979736328,152.55999755859375,314,0.0,0.0
2024-08-30 15:03:00-04:00,152.57000732421875,152.57000732421875,152.55999755859375,152.55999755859375,1469,0.0,0.0
2024-08-30 15:12:00-04:00,152.63499450683594,152.75999450683594,152.63499450683594,152.75999450683594,1413,0.0,0.0
2024-08-30 15:13:00-04:00,152.75999450683594,152.75999450683594,152.72000122070312,152.75999450683594,1029,0.0,0.0
2024-08-30 15:15:00-04:00,152.7926025390625,152.7926025390625,152.7926025390625,152.7926025390625,414,0.0,0.0
2024-08-30 15:19:00-04:00,152.7899932861328,152.7899932861328,152.7899932861328,152.7899932861328,1716,0.0,0.0
2024-08-30 15:22:00-04:00,152.82000732421875,152.8800048828125,152.82000732421875,152.8699951171875,1429,0.0,0.0
2024-08-30 15:24:00-04:00,152.9199981689453,152.9199981689453,152.9199981689453,152.9199981689453,301,0.0,0.0
2024-08-30 15:28:00-04:00,152.88999938964844,152.9499969482422,152.88999938964844,152.94000244140625,1755,0.0,0.0
2024-08-30 15:29:00-04:00,152.8699951171875,152.8699951171875,152.8699951171875,152.8699951171875,524,0.0,0.0
2024-08-30 15:31:00-04:00,152.9600067138672,152.9600067138672,152.91099548339844,152.91099548339844,797,0.0,0.0
2024-08-30 15:33:00-04:00,152.84500122070312,152.84500122070312,152.84500122070312,152.84500122070312,479,0.0,0.0
2024-08-30 15:35:00-04:00,152.85000610351562,153.0,152.85000610351562,152.92999267578125,1103,0.0,0.0
2024-08-30 15:37:00-04:00,152.9600067138672,152.9949951171875,152.91099548339844,152.9949951171875,756,0.0,0.0
2024-08-30 15:40:00-04:00,152.9199981689453,153.0,152.9199981689453,153.0,1661,0.0,0.0
2024-08-30 15:41:00-04:00,153.0500030517578,153.0500030517578,153.0500030517578,153.0500030517578,286,0.0,0.0
2024-08-30 15:42:00-04:00,153.05999755859375,153.05999755859375,153.05999755859375,153.05999755859375,131,0.0,0.0
2024-08-30 15:43:00-04:00,153.05999755859375,153.05999755859375,153.05999755859375,153.05999755859375,471,0.0,0.0
2024-08-30 15:44:00-04:00,152.94000244140625,152.9550018310547,152.91099548339844,152.9550018310547,447,0.0,0.0
2024-08-30 15:45:00-04:00,152.9600067138672,152.97000122070312,152.9600067138672,152.97000122070312,359,0.0,0.0
2024-08-30 15:46:00-04:00,152.9600067138672,152.9600067138672,152.9600067138672,152.9600067138672,186,0.0,0.0
2024-08-30 15:47:00-04:00,153.0,153.02999877929688,153.0,153.02999877929688,1163,0.0,0.0
2024-08-30 15:48:00-04:00,153.00999450683594,153.00999450683594,153.00999450683594,153.00999450683594,104,0.0,0.0
2024-08-30 15:49:00-04:00,152.97000122070312,152.97000122070312,152.94000244140625,152.94000244140625,994,0.0,0.0
2024-08-30 15:50:00-04:00,152.97000122070312,153.1999969482422,152.97000122070312,153.1999969482422,2799,0.0,0.0
2024-08-30 15:51:00-04:00,153.27999877929688,153.27999877929688,153.27999877929688,153.27999877929688,716,0.0,0.0
2024-08-30 15:52:00-04:00,153.1699981689453,153.25,153.1699981689453,153.17999267578125,4446,0.0,0.0
2024-08-30 15:53:00-04:00,153.17999267578125,153.32000732421875,153.17999267578125,153.32000732421875,2647,0.0,0.0
2024-08-30 15:54:00-04:00,153.33999633789062,153.33999633789062,153.32000732421875,153.32000732421875,542,0.0,0.0
2024-08-30 15:55:00-04:00,153.39999389648438,153.44000244140625,153.39999389648438,153.4199981689453,1707,0.0,0.0
2024-08-30 15:56:00-04:00,153.3699951171875,153.3699951171875,153.16000366210938,153.2100067138672,2376,0.0,0.0
2024-08-30 15:57:00-04:00,153.22000122070312,153.36000061035156,153.22000122070312,153.36000061035156,3182,0.0,0.0
2024-08-30 15:58:00-04:00,153.3000030517578,153.3249969482422,153.2469940185547,153.3249969482422,1960,0.0,0.0
2024-08-30 15:59:00-04:00,153.3300018310547,153.3300018310547,153.0500030517578,153.0500030517578,10014,0.0,0.0
