Datetime,Open,High,Low,Close,Volume,Dividends,Stock Splits
2024-07-08 09:30:00-04:00,141.64999389648438,142.4499969482422,141.64999389648438,142.4499969482422,2175,0.0,0.0
2024-07-08 09:31:00-04:00,142.02999877929688,142.5,142.02999877929688,142.11000061035156,854,0.0,0.0
2024-07-08 09:32:00-04:00,142.02999877929688,142.02999877929688,142.02999877929688,142.02999877929688,621,0.0,0.0
2024-07-08 09:35:00-04:00,141.88499450683594,141.88499450683594,141.88499450683594,141.88499450683594,251,0.0,0.0
2024-07-08 09:36:00-04:00,141.88499450683594,141.88499450683594,141.6300048828125,141.6300048828125,799,0.0,0.0
2024-07-08 09:38:00-04:00,141.85000610351562,141.85000610351562,141.84500122070312,141.84500122070312,473,0.0,0.0
2024-07-08 09:43:00-04:00,141.5500030517578,141.5800018310547,141.5500030517578,141.5800018310547,405,0.0,0.0
2024-07-08 09:44:00-04:00,141.50999450683594,141.50999450683594,141.50999450683594,141.50999450683594,210,0.0,0.0
2024-07-08 09:45:00-04:00,141.52000427246094,141.8300018310547,141.52000427246094,141.8300018310547,1181,0.0,0.0
2024-07-08 09:49:00-04:00,141.94000244140625,141.99000549316406,141.94000244140625,141.99000549316406,901,0.0,0.0
2024-07-08 09:57:00-04:00,141.66000366210938,141.66000366210938,141.66000366210938,141.66000366210938,741,0.0,0.0
2024-07-08 10:00:00-04:00,141.74000549316406,141.74000549316406,141.74000549316406,141.74000549316406,284,0.0,0.0
2024-07-08 10:01:00-04:00,141.8699951171875,141.8699951171875,141.8699951171875,141.8699951171875,220,0.0,0.0
2024-07-08 10:02:00-04:00,141.7550048828125,141.7550048828125,141.7449951171875,141.7449951171875,371,0.0,0.0
2024-07-08 10:06:00-04:00,141.76499938964844,141.77000427246094,141.75999450683594,141.75999450683594,814,0.0,0.0
2024-07-08 10:10:00-04:00,141.77000427246094,141.86000061035156,141.77000427246094,141.86000061035156,515,0.0,0.0
2024-07-08 10:11:00-04:00,141.89999389648438,141.91000366210938,141.89999389648438,141.91000366210938,1779,0.0,0.0
2024-07-08 10:17:00-04:00,141.9499969482422,141.9499969482422,141.9499969482422,141.9499969482422,154,0.0,0.0
2024-07-08 10:19:00-04:00,141.9499969482422,141.9499969482422,141.94000244140625,141.9499969482422,815,0.0,0.0
2024-07-08 10:20:00-04:00,142.0500030517578,142.05999755859375,142.0449981689453,142.0449981689453,1532,0.0,0.0
2024-07-08 10:25:00-04:00,141.9499969482422,141.9499969482422,141.9499969482422,141.9499969482422,199,0.0,0.0
2024-07-08 10:26:00-04:00,141.9499969482422,141.9499969482422,141.94000244140625,141.94000244140625,327,0.0,0.0
2024-07-08 10:28:00-04:00,141.9149932861328,141.9149932861328,141.9149932861328,141.9149932861328,165,0.0,0.0
2024-07-08 10:29:00-04:00,142.00999450683594,142.05999755859375,142.00999450683594,142.05999755859375,942,0.0,0.0
2024-07-08 10:32:00-04:00,141.89999389648438,141.89999389648438,141.89999389648438,141.89999389648438,162,0.0,0.0
2024-07-08 10:33:00-04:00,142.05999755859375,142.05999755859375,141.9149932861328,142.05999755859375,2969,0.0,0.0
2024-07-08 10:34:00-04:00,142.04519653320312,142.04519653320312,141.97500610351562,141.97500610351562,701,0.0,0.0
2024-07-08 10:35:00-04:00,142.01499938964844,142.01499938964844,142.01499938964844,142.01499938964844,258,0.0,0.0
2024-07-08 10:37:00-04:00,142.0399932861328,142.13499450683594,142.0399932861328,142.0500030517578,1581,0.0,0.0
2024-07-08 10:44:00-04:00,142.0749969482422,142.19000244140625,142.0749969482422,142.19000244140625,518,0.0,0.0
2024-07-08 10:47:00-04:00,142.0800018310547,142.22000122070312,142.0800018310547,142.22000122070312,833,0.0,0.0
2024-07-08 10:48:00-04:00,142.22000122070312,142.22000122070312,142.22000122070312,142.22000122070312,576,0.0,0.0
2024-07-08 10:51:00-04:00,142.2949981689453,142.2949981689453,142.2949981689453,142.2949981689453,1193,0.0,0.0
2024-07-08 10:58:00-04:00,142.2550048828125,142.2550048828125,142.22000122070312,142.22000122070312,1781,0.0,0.0
2024-07-08 11:02:00-04:00,142.3000030517578,142.3000030517578,142.3000030517578,142.3000030517578,547,0.0,0.0
2024-07-08 11:05:00-04:00,142.27999877929688,142.27999877929688,142.27999877929688,142.27999877929688,542,0.0,0.0
2024-07-08 11:11:00-04:00,142.1199951171875,142.1199951171875,142.1199951171875,142.1199951171875,526,0.0,0.0
2024-07-08 11:16:00-04:00,142.0399932861328,142.16000366210938,142.0399932861328,142.11500549316406,1992,0.0,0.0
2024-07-08 11:19:00-04:00,142.0,142.0850067138672,142.0,142.0399932861328,1218,0.0,0.0
2024-07-08 11:20:00-04:00,141.88499450683594,141.88499450683594,141.88499450683594,141.88499450683594,608,0.0,0.0
2024-07-08 11:23:00-04:00,141.86500549316406,141.99000549316406,141.86500549316406,141.99000549316406,1666,0.0,0.0
2024-07-08 11:24:00-04:00,142.02000427246094,142.11000061035156,142.02000427246094,142.11000061035156,912,0.0,0.0
2024-07-08 11:30:00-04:00,142.06500244140625,142.06500244140625,142.06500244140625,142.06500244140625,905,0.0,0.0
2024-07-08 11:35:00-04:00,141.88499450683594,141.88499450683594,141.88499450683594,141.88499450683594,238,0.0,0.0
2024-07-08 11:37:00-04:00,141.84500122070312,141.84500122070312,141.8000030517578,141.8000030517578,10865,0.0,0.0
2024-07-08 11:45:00-04:00,141.75,141.75,141.75,141.75,909,0.0,0.0
2024-07-08 11:51:00-04:00,141.64500427246094,141.64500427246094,141.64500427246094,141.64500427246094,553,0.0,0.0
2024-07-08 11:55:00-04:00,141.57000732421875,141.57000732421875,141.57000732421875,141.57000732421875,222,0.0,0.0
2024-07-08 11:58:00-04:00,141.57000732421875,141.64999389648438,141.57000732421875,141.64999389648438,1244,0.0,0.0
2024-07-08 12:02:00-04:00,141.5749969482422,141.5749969482422,141.5749969482422,141.5749969482422,363,0.0,0.0
2024-07-08 12:07:00-04:00,141.5050048828125,141.5050048828125,141.5050048828125,141.5050048828125,808,0.0,0.0
2024-07-08 12:12:00-04:00,141.58999633789062,141.58999633789062,141.58999633789062,141.58999633789062,643,0.0,0.0
2024-07-08 12:18:00-04:00,141.6999969482422,141.6999969482422,141.63499450683594,141.63499450683594,1407,0.0,0.0
2024-07-08 12:23:00-04:00,141.72000122070312,141.72000122070312,141.72000122070312,141.72000122070312,757,0.0,0.0
2024-07-08 12:30:00-04:00,141.67999267578125,141.67999267578125,141.6699981689453,141.6750030517578,1329,0.0,0.0
2024-07-08 12:31:00-04:00,141.77999877929688,141.8300018310547,141.77999877929688,141.8300018310547,376,0.0,0.0
2024-07-08 12:32:00-04:00,141.8300018310547,141.8300018310547,141.8300018310547,141.8300018310547,1009,0.0,0.0
2024-07-08 12:36:00-04:00,141.7899932861328,141.7899932861328,141.7899932861328,141.7899932861328,391,0.0,0.0
2024-07-08 12:38:00-04:00,141.86000061035156,141.86000061035156,141.86000061035156,141.86000061035156,104,0.0,0.0
2024-07-08 12:39:00-04:00,141.86000061035156,141.86000061035156,141.86000061035156,141.86000061035156,346,0.0,0.0
2024-07-08 12:42:00-04:00,141.6999969482422,141.7100067138672,141.6999969482422,141.7100067138672,310,0.0,0.0
2024-07-08 12:44:00-04:00,141.72000122070312,141.72740173339844,141.69000244140625,141.69000244140625,479,0.0,0.0
2024-07-08 12:45:00-04:00,141.69000244140625,141.72500610351562,141.64999389648438,141.64999389648438,1927,0.0,0.0
2024-07-08 12:46:00-04:00,141.64999389648438,141.64999389648438,141.60000610351562,141.60000610351562,439,0.0,0.0
2024-07-08 12:47:00-04:00,141.63999938964844,141.63999938964844,141.63999938964844,141.63999938964844,420,0.0,0.0
2024-07-08 12:48:00-04:00,141.6999969482422,141.7324981689453,141.6999969482422,141.7324981689453,914,0.0,0.0
2024-07-08 12:54:00-04:00,141.91000366210938,141.91000366210938,141.91000366210938,141.91000366210938,746,0.0,0.0
2024-07-08 12:59:00-04:00,141.8800048828125,141.8800048828125,141.8800048828125,141.8800048828125,421,0.0,0.0
2024-07-08 13:00:00-04:00,141.9250030517578,141.9250030517578,141.9250030517578,141.9250030517578,538,0.0,0.0
2024-07-08 13:02:00-04:00,141.97000122070312,141.97000122070312,141.97000122070312,141.97000122070312,237,0.0,0.0
2024-07-08 13:05:00-04:00,142.0,142.0,142.0,142.0,1892,0.0,0.0
2024-07-08 13:21:00-04:00,142.02999877929688,142.02999877929688,142.02999877929688,142.02999877929688,1057,0.0,0.0
2024-07-08 13:27:00-04:00,142.0500030517578,142.0500030517578,142.0500030517578,142.0500030517578,555,0.0,0.0
2024-07-08 13:29:00-04:00,142.00999450683594,142.06500244140625,142.0,142.0,1295,0.0,0.0
2024-07-08 13:34:00-04:00,142.0500030517578,142.07000732421875,142.0500030517578,142.07000732421875,473,0.0,0.0
2024-07-08 13:38:00-04:00,142.0800018310547,142.0800018310547,142.0800018310547,142.0800018310547,835,0.0,0.0
2024-07-08 13:46:00-04:00,142.05999755859375,142.0800018310547,142.02499389648438,142.03500366210938,2218,0.0,0.0
2024-07-08 13:47:00-04:00,141.97999572753906,142.02999877929688,141.97999572753906,142.02999877929688,635,0.0,0.0
2024-07-08 13:50:00-04:00,141.9499969482422,141.9499969482422,141.9499969482422,141.9499969482422,245,0.0,0.0
2024-07-08 13:51:00-04:00,142.02000427246094,142.10000610351562,142.02000427246094,142.10000610351562,1071,0.0,0.0
2024-07-08 13:52:00-04:00,142.03500366210938,142.03500366210938,142.03500366210938,142.03500366210938,417,0.0,0.0
2024-07-08 13:54:00-04:00,142.0399932861328,142.11000061035156,142.03500366210938,142.03500366210938,1270,0.0,0.0
2024-07-08 13:56:00-04:00,141.95120239257812,141.95120239257812,141.95120239257812,141.95120239257812,377,0.0,0.0
2024-07-08 13:59:00-04:00,142.0800018310547,142.0800018310547,142.0800018310547,142.0800018310547,476,0.0,0.0
2024-07-08 14:01:00-04:00,142.0,142.0,142.0,142.0,320,0.0,0.0
2024-07-08 14:03:00-04:00,141.97000122070312,141.98170471191406,141.97000122070312,141.98170471191406,831,0.0,0.0
2024-07-08 14:04:00-04:00,141.9600067138672,142.0050048828125,141.9499969482422,142.0050048828125,3347,0.0,0.0
2024-07-08 14:05:00-04:00,141.97000122070312,141.97000122070312,141.97000122070312,141.97000122070312,1231,0.0,0.0
2024-07-08 14:06:00-04:00,141.9949951171875,141.9949951171875,141.9949951171875,141.9949951171875,171,0.0,0.0
2024-07-08 14:07:00-04:00,141.9499969482422,141.96499633789062,141.9499969482422,141.96499633789062,305,0.0,0.0
2024-07-08 14:09:00-04:00,142.02000427246094,142.02000427246094,142.02000427246094,142.02000427246094,785,0.0,0.0
2024-07-08 14:16:00-04:00,141.8699951171875,141.8699951171875,141.8699951171875,141.8699951171875,267,0.0,0.0
2024-07-08 14:17:00-04:00,141.88999938964844,141.88999938964844,141.88999938964844,141.88999938964844,184,0.0,0.0
2024-07-08 14:19:00-04:00,141.91000366210938,141.91000366210938,141.91000366210938,141.91000366210938,496,0.0,0.0
2024-07-08 14:20:00-04:00,141.83999633789062,141.83999633789062,141.78500366210938,141.78500366210938,2227,0.0,0.0
2024-07-08 14:24:00-04:00,141.85000610351562,141.85000610351562,141.85000610351562,141.85000610351562,684,0.0,0.0
2024-07-08 14:31:00-04:00,141.9600067138672,141.9600067138672,141.9600067138672,141.9600067138672,313,0.0,0.0
2024-07-08 14:34:00-04:00,141.97999572753906,141.97999572753906,141.97999572753906,141.97999572753906,678,0.0,0.0
2024-07-08 14:36:00-04:00,142.10000610351562,142.10000610351562,142.10000610351562,142.10000610351562,409,0.0,0.0
2024-07-08 14:40:00-04:00,142.00999450683594,142.02000427246094,142.00999450683594,142.00999450683594,923,0.0,0.0
2024-07-08 14:42:00-04:00,142.0,142.0,141.9600067138672,142.0,1091,0.0,0.0
2024-07-08 14:43:00-04:00,142.02000427246094,142.02000427246094,142.02000427246094,142.02000427246094,558,0.0,0.0
2024-07-08 14:45:00-04:00,142.06500244140625,142.06500244140625,142.06500244140625,142.06500244140625,1106,0.0,0.0
2024-07-08 14:57:00-04:00,142.0800018310547,142.0800018310547,142.0449981689453,142.0800018310547,1202,0.0,0.0
2024-07-08 14:58:00-04:00,142.05499267578125,142.05499267578125,142.05499267578125,142.05499267578125,656,0.0,0.0
2024-07-08 15:02:00-04:00,142.0,142.0,142.0,142.0,407,0.0,0.0
2024-07-08 15:05:00-04:00,142.0800018310547,142.1300048828125,142.0800018310547,142.1300048828125,1063,0.0,0.0
2024-07-08 15:08:00-04:00,142.1300048828125,142.1300048828125,142.1300048828125,142.1300048828125,1482,0.0,0.0
2024-07-08 15:12:00-04:00,142.0749969482422,142.0749969482422,142.0749969482422,142.0749969482422,331,0.0,0.0
2024-07-08 15:13:00-04:00,142.1199951171875,142.1199951171875,142.1199951171875,142.1199951171875,242,0.0,0.0
2024-07-08 15:15:00-04:00,142.11000061035156,142.1999969482422,142.10000610351562,142.17990112304688,1917,0.0,0.0
2024-07-08 15:17:00-04:00,142.13999938964844,142.13999938964844,142.13999938964844,142.13999938964844,162,0.0,0.0
2024-07-08 15:18:00-04:00,142.13999938964844,142.1699981689453,142.13999938964844,142.1699981689453,263,0.0,0.0
2024-07-08 15:19:00-04:00,142.11000061035156,142.16000366210938,142.0800018310547,142.16000366210938,1517,0.0,0.0
2024-07-08 15:20:00-04:00,142.16000366210938,142.16000366210938,142.16000366210938,142.16000366210938,245,0.0,0.0
2024-07-08 15:24:00-04:00,142.08999633789062,142.08999633789062,142.08999633789062,142.08999633789062,339,0.0,0.0
2024-07-08 15:25:00-04:00,142.13999938964844,142.13999938964844,142.13999938964844,142.13999938964844,235,0.0,0.0
2024-07-08 15:26:00-04:00,142.1300048828125,142.17999267578125,142.1300048828125,142.17999267578125,385,0.0,0.0
2024-07-08 15:27:00-04:00,142.17999267578125,142.1999969482422,142.1649932861328,142.1649932861328,923,0.0,0.0
2024-07-08 15:28:00-04:00,142.1649932861328,142.17999267578125,142.16000366210938,142.16000366210938,415,0.0,0.0
2024-07-08 15:29:00-04:00,142.1497039794922,142.1497039794922,142.1497039794922,142.1497039794922,743,0.0,0.0
2024-07-08 15:30:00-04:00,142.13999938964844,142.13999938964844,142.13999938964844,142.13999938964844,811,0.0,0.0
2024-07-08 15:34:00-04:00,142.13999938964844,142.13999938964844,142.1199951171875,142.1199951171875,337,0.0,0.0
2024-07-08 15:35:00-04:00,142.1199951171875,142.1699981689453,142.1199951171875,142.1699981689453,401,0.0,0.0
2024-07-08 15:36:00-04:00,142.1699981689453,142.1699981689453,142.1699981689453,142.1699981689453,515,0.0,0.0
2024-07-08 15:38:00-04:00,142.13999938964844,142.13999938964844,142.13999938964844,142.13999938964844,239,0.0,0.0
2024-07-08 15:40:00-04:00,142.16000366210938,142.16000366210938,142.16000366210938,142.16000366210938,265,0.0,0.0
2024-07-08 15:41:00-04:00,142.1300048828125,142.1699981689453,142.10000610351562,142.1699981689453,2803,0.0,0.0
2024-07-08 15:42:00-04:00,142.13999938964844,142.13999938964844,142.10000610351562,142.1199951171875,2576,0.0,0.0
2024-07-08 15:43:00-04:00,142.1300048828125,142.1300048828125,142.10000610351562,142.1300048828125,1358,0.0,0.0
2024-07-08 15:44:00-04:00,142.1060028076172,142.1199951171875,142.1060028076172,142.1199951171875,594,0.0,0.0
2024-07-08 15:45:00-04:00,142.1199951171875,142.13999938964844,142.1199951171875,142.13999938964844,2459,0.0,0.0
2024-07-08 15:46:00-04:00,142.13999938964844,142.13999938964844,142.10000610351562,142.125,2908,0.0,0.0
2024-07-08 15:47:00-04:00,142.11000061035156,142.11099243164062,142.10000610351562,142.10499572753906,1771,0.0,0.0
2024-07-08 15:49:00-04:00,142.08999633789062,142.08999633789062,141.80999755859375,141.86000061035156,5187,0.0,0.0
2024-07-08 15:50:00-04:00,141.8800048828125,141.8800048828125,141.7899932861328,141.79150390625,3036,0.0,0.0
2024-07-08 15:51:00-04:00,141.77999877929688,141.8000030517578,141.72999572753906,141.7949981689453,2601,0.0,0.0
2024-07-08 15:52:00-04:00,141.77000427246094,141.80499267578125,141.74099731445312,141.75,3123,0.0,0.0
2024-07-08 15:54:00-04:00,141.8300018310547,141.92999267578125,141.81500244140625,141.91000366210938,4175,0.0,0.0
2024-07-08 15:55:00-04:00,141.88999938964844,141.94000244140625,141.88499450683594,141.94000244140625,1742,0.0,0.0
2024-07-08 15:56:00-04:00,141.88499450683594,141.88499450683594,141.85000610351562,141.8509979248047,2207,0.0,0.0
2024-07-08 15:57:00-04:00,141.86000061035156,141.89999389648438,141.7899932861328,141.83999633789062,9125,0.0,0.0
2024-07-08 15:58:00-04:00,141.8300018310547,141.8300018310547,141.6999969482422,141.7100067138672,3917,0.0,0.0
2024-07-08 15:59:00-04:00,141.6699981689453,141.6699981689453,141.5,141.55999755859375,19948,0.0,0.0
2024-07-09 09:30:00-04:00,140.86000061035156,140.86000061035156,140.86000061035156,140.86000061035156,5161,0.0,0.0
2024-07-09 09:34:00-04:00,141.27000427246094,141.27000427246094,141.27000427246094,141.27000427246094,2017,0.0,0.0
2024-07-09 10:00:00-04:00,140.94000244140625,140.94000244140625,140.5800018310547,140.93499755859375,8919,0.0,0.0
2024-07-09 10:01:00-04:00,140.92999267578125,140.92999267578125,140.92999267578125,140.92999267578125,103,0.0,0.0
2024-07-09 10:04:00-04:00,140.86500549316406,140.86500549316406,140.85499572753906,140.85499572753906,238,0.0,0.0
2024-07-09 10:05:00-04:00,140.8699951171875,140.8699951171875,140.8699951171875,140.8699951171875,224,0.0,0.0
2024-07-09 10:06:00-04:00,140.63999938964844,140.63999938964844,140.63999938964844,140.63999938964844,310,0.0,0.0
2024-07-09 10:08:00-04:00,140.89500427246094,140.91000366210938,140.89500427246094,140.91000366210938,1166,0.0,0.0
2024-07-09 10:12:00-04:00,140.8699951171875,140.8699951171875,140.72000122070312,140.72000122070312,719,0.0,0.0
2024-07-09 10:17:00-04:00,140.85499572753906,140.85499572753906,140.85499572753906,140.85499572753906,333,0.0,0.0
2024-07-09 10:20:00-04:00,140.64999389648438,140.64999389648438,140.64999389648438,140.64999389648438,457,0.0,0.0
2024-07-09 10:25:00-04:00,140.77499389648438,140.77499389648438,140.77499389648438,140.77499389648438,590,0.0,0.0
2024-07-09 10:30:00-04:00,140.91000366210938,140.91000366210938,140.91000366210938,140.91000366210938,385,0.0,0.0
2024-07-09 10:32:00-04:00,141.00999450683594,141.00999450683594,141.00999450683594,141.00999450683594,254,0.0,0.0
2024-07-09 10:35:00-04:00,140.9199981689453,141.0050048828125,140.9199981689453,141.0050048828125,373,0.0,0.0
2024-07-09 10:39:00-04:00,141.16000366210938,141.16000366210938,141.16000366210938,141.16000366210938,327,0.0,0.0
2024-07-09 10:42:00-04:00,140.80999755859375,140.80999755859375,140.80999755859375,140.80999755859375,248,0.0,0.0
2024-07-09 10:44:00-04:00,140.9550018310547,140.9550018310547,140.9550018310547,140.9550018310547,223,0.0,0.0
2024-07-09 10:50:00-04:00,140.91000366210938,140.91000366210938,140.91000366210938,140.91000366210938,277,0.0,0.0
2024-07-09 10:51:00-04:00,140.7899932861328,140.7899932861328,140.7899932861328,140.7899932861328,242,0.0,0.0
2024-07-09 10:52:00-04:00,140.9499969482422,140.9499969482422,140.9499969482422,140.9499969482422,274,0.0,0.0
2024-07-09 10:56:00-04:00,140.8800048828125,140.8800048828125,140.8800048828125,140.8800048828125,342,0.0,0.0
2024-07-09 11:03:00-04:00,140.7899932861328,140.7899932861328,140.7899932861328,140.7899932861328,311,0.0,0.0
2024-07-09 11:05:00-04:00,140.9499969482422,140.9499969482422,140.9499969482422,140.9499969482422,504,0.0,0.0
2024-07-09 11:08:00-04:00,140.8800048828125,140.8800048828125,140.8800048828125,140.8800048828125,435,0.0,0.0
2024-07-09 11:10:00-04:00,140.7899932861328,140.7899932861328,140.55999755859375,140.55999755859375,798,0.0,0.0
2024-07-09 11:11:00-04:00,140.69000244140625,140.69000244140625,140.69000244140625,140.69000244140625,162,0.0,0.0
2024-07-09 11:12:00-04:00,140.68499755859375,140.68499755859375,140.68499755859375,140.68499755859375,464,0.0,0.0
2024-07-09 11:13:00-04:00,140.67999267578125,140.67999267578125,140.67999267578125,140.67999267578125,316,0.0,0.0
2024-07-09 11:15:00-04:00,140.75,140.82000732421875,140.75,140.82000732421875,1160,0.0,0.0
2024-07-09 11:17:00-04:00,140.60000610351562,140.60000610351562,140.60000610351562,140.60000610351562,480,0.0,0.0
2024-07-09 11:24:00-04:00,140.47999572753906,140.47999572753906,140.47999572753906,140.47999572753906,152,0.0,0.0
2024-07-09 11:25:00-04:00,140.55499267578125,140.7899932861328,140.55499267578125,140.6649932861328,1449,0.0,0.0
2024-07-09 11:30:00-04:00,140.77999877929688,140.77999877929688,140.77999877929688,140.77999877929688,122,0.0,0.0
2024-07-09 11:31:00-04:00,140.63499450683594,140.63499450683594,140.63499450683594,140.63499450683594,390,0.0,0.0
2024-07-09 11:35:00-04:00,140.8000030517578,140.8000030517578,140.8000030517578,140.8000030517578,605,0.0,0.0
2024-07-09 11:38:00-04:00,140.72000122070312,140.86000061035156,140.72000122070312,140.86000061035156,905,0.0,0.0
2024-07-09 11:42:00-04:00,140.89999389648438,140.9199981689453,140.89999389648438,140.9199981689453,357,0.0,0.0
2024-07-09 11:44:00-04:00,140.84500122070312,140.84500122070312,140.84500122070312,140.84500122070312,419,0.0,0.0
2024-07-09 11:48:00-04:00,140.7899932861328,140.7899932861328,140.7899932861328,140.7899932861328,846,0.0,0.0
2024-07-09 12:04:00-04:00,140.85000610351562,140.85000610351562,140.85000610351562,140.85000610351562,1987,0.0,0.0
2024-07-09 12:20:00-04:00,140.89999389648438,140.9600067138672,140.86500549316406,140.86500549316406,1969,0.0,0.0
2024-07-09 12:23:00-04:00,140.85499572753906,140.85499572753906,140.85499572753906,140.85499572753906,461,0.0,0.0
2024-07-09 12:25:00-04:00,140.89999389648438,140.89999389648438,140.89999389648438,140.89999389648438,526,0.0,0.0
2024-07-09 12:28:00-04:00,140.9600067138672,140.9600067138672,140.9600067138672,140.9600067138672,423,0.0,0.0
2024-07-09 12:34:00-04:00,140.97999572753906,140.97999572753906,140.97999572753906,140.97999572753906,127,0.0,0.0
2024-07-09 12:35:00-04:00,140.88999938964844,140.88999938964844,140.88999938964844,140.88999938964844,378,0.0,0.0
2024-07-09 12:38:00-04:00,140.99000549316406,141.0800018310547,140.85000610351562,140.99000549316406,2973,0.0,0.0
2024-07-09 12:39:00-04:00,140.9949951171875,140.9949951171875,140.9949951171875,140.9949951171875,361,0.0,0.0
2024-07-09 12:45:00-04:00,141.01499938964844,141.01499938964844,141.01499938964844,141.01499938964844,197,0.0,0.0
2024-07-09 12:48:00-04:00,141.01499938964844,141.01499938964844,141.01499938964844,141.01499938964844,304,0.0,0.0
2024-07-09 12:52:00-04:00,141.0,141.0,141.0,141.0,839,0.0,0.0
2024-07-09 12:55:00-04:00,140.89999389648438,140.89999389648438,140.89999389648438,140.89999389648438,125,0.0,0.0
2024-07-09 12:56:00-04:00,141.00999450683594,141.00999450683594,141.00999450683594,141.00999450683594,277,0.0,0.0
2024-07-09 12:58:00-04:00,140.99000549316406,140.9949951171875,140.99000549316406,140.9949951171875,2396,0.0,0.0
2024-07-09 12:59:00-04:00,140.97500610351562,140.97500610351562,140.97500610351562,140.97500610351562,654,0.0,0.0
2024-07-09 13:01:00-04:00,141.05499267578125,141.05499267578125,141.05499267578125,141.05499267578125,349,0.0,0.0
2024-07-09 13:02:00-04:00,141.05499267578125,141.05499267578125,141.05499267578125,141.05499267578125,501,0.0,0.0
2024-07-09 13:05:00-04:00,141.05499267578125,141.05499267578125,141.05499267578125,141.05499267578125,383,0.0,0.0
2024-07-09 13:08:00-04:00,141.1300048828125,141.1300048828125,141.10000610351562,141.10000610351562,631,0.0,0.0
2024-07-09 13:09:00-04:00,141.11000061035156,141.25999450683594,141.08999633789062,141.16000366210938,3803,0.0,0.0
2024-07-09 13:16:00-04:00,141.1750030517578,141.1750030517578,141.1750030517578,141.1750030517578,1233,0.0,0.0
2024-07-09 13:18:00-04:00,141.17999267578125,141.19000244140625,141.14999389648438,141.14999389648438,1336,0.0,0.0
2024-07-09 13:20:00-04:00,141.19000244140625,141.19000244140625,141.19000244140625,141.19000244140625,338,0.0,0.0
2024-07-09 13:24:00-04:00,141.14999389648438,141.14999389648438,141.14999389648438,141.14999389648438,329,0.0,0.0
2024-07-09 13:28:00-04:00,141.18499755859375,141.2100067138672,141.1824951171875,141.1999969482422,1342,0.0,0.0
2024-07-09 13:29:00-04:00,141.1999969482422,141.22999572753906,141.1999969482422,141.22999572753906,923,0.0,0.0
2024-07-09 13:30:00-04:00,141.23500061035156,141.23500061035156,141.23500061035156,141.23500061035156,155,0.0,0.0
2024-07-09 13:32:00-04:00,141.1999969482422,141.1999969482422,141.19000244140625,141.19000244140625,879,0.0,0.0
2024-07-09 13:40:00-04:00,141.1999969482422,141.1999969482422,141.13999938964844,141.1999969482422,1717,0.0,0.0
2024-07-09 13:43:00-04:00,141.19500732421875,141.1999969482422,141.1300048828125,141.1750030517578,2087,0.0,0.0
2024-07-09 13:44:00-04:00,141.1199951171875,141.1750030517578,141.10000610351562,141.10000610351562,2212,0.0,0.0
2024-07-09 13:47:00-04:00,141.10000610351562,141.14999389648438,140.97000122070312,141.09500122070312,3840,0.0,0.0
2024-07-09 13:48:00-04:00,140.94500732421875,140.94500732421875,140.94500732421875,140.94500732421875,263,0.0,0.0
2024-07-09 13:51:00-04:00,140.92999267578125,140.92999267578125,140.92999267578125,140.92999267578125,1018,0.0,0.0
2024-07-09 13:57:00-04:00,140.7899932861328,140.7899932861328,140.78500366210938,140.7899932861328,703,0.0,0.0
2024-07-09 14:01:00-04:00,140.57000732421875,140.60000610351562,140.5399932861328,140.5399932861328,764,0.0,0.0
2024-07-09 14:02:00-04:00,140.52999877929688,140.52999877929688,140.52999877929688,140.52999877929688,225,0.0,0.0
2024-07-09 14:04:00-04:00,140.3699951171875,140.3699951171875,140.3699951171875,140.3699951171875,273,0.0,0.0
2024-07-09 14:07:00-04:00,140.30999755859375,140.30999755859375,140.30999755859375,140.30999755859375,511,0.0,0.0
2024-07-09 14:08:00-04:00,140.39999389648438,140.39999389648438,140.39999389648438,140.39999389648438,5269,0.0,0.0
2024-07-09 14:09:00-04:00,140.27999877929688,140.27999877929688,140.27999877929688,140.27999877929688,481,0.0,0.0
2024-07-09 14:12:00-04:00,140.11000061035156,140.11000061035156,140.11000061035156,140.11000061035156,524,0.0,0.0
2024-07-09 14:13:00-04:00,140.27999877929688,140.36000061035156,140.27000427246094,140.36000061035156,658,0.0,0.0
2024-07-09 14:15:00-04:00,140.30499267578125,140.30499267578125,140.30499267578125,140.30499267578125,155,0.0,0.0
2024-07-09 14:16:00-04:00,140.30499267578125,140.30499267578125,140.30499267578125,140.30499267578125,539,0.0,0.0
2024-07-09 14:20:00-04:00,140.1699981689453,140.1699981689453,140.1699981689453,140.1699981689453,1196,0.0,0.0
2024-07-09 14:31:00-04:00,140.27999877929688,140.27999877929688,140.27999877929688,140.27999877929688,263,0.0,0.0
2024-07-09 14:32:00-04:00,140.25,140.25,140.25,140.25,169,0.0,0.0
2024-07-09 14:34:00-04:00,140.25999450683594,140.25999450683594,140.25999450683594,140.25999450683594,131,0.0,0.0
2024-07-09 14:35:00-04:00,140.27499389648438,140.27499389648438,140.27499389648438,140.27499389648438,305,0.0,0.0
2024-07-09 14:36:00-04:00,140.3699951171875,140.3699951171875,140.3699951171875,140.3699951171875,1786,0.0,0.0
2024-07-09 14:46:00-04:00,140.35000610351562,140.35000610351562,140.35000610351562,140.35000610351562,374,0.0,0.0
2024-07-09 14:49:00-04:00,140.34579467773438,140.34579467773438,140.34579467773438,140.34579467773438,711,0.0,0.0
2024-07-09 14:52:00-04:00,140.41000366210938,140.41000366210938,140.41000366210938,140.41000366210938,263,0.0,0.0
2024-07-09 14:53:00-04:00,140.36000061035156,140.36000061035156,140.35499572753906,140.35499572753906,635,0.0,0.0
2024-07-09 14:56:00-04:00,140.3000030517578,140.3000030517578,140.25,140.27999877929688,1836,0.0,0.0
2024-07-09 14:59:00-04:00,140.25,140.25,140.25,140.25,1117,0.0,0.0
2024-07-09 15:06:00-04:00,140.07000732421875,140.07000732421875,140.07000732421875,140.07000732421875,354,0.0,0.0
2024-07-09 15:08:00-04:00,140.0800018310547,140.0800018310547,140.0800018310547,140.0800018310547,354,0.0,0.0
2024-07-09 15:12:00-04:00,140.1199951171875,140.1199951171875,140.1199951171875,140.1199951171875,308,0.0,0.0
2024-07-09 15:13:00-04:00,140.07000732421875,140.07000732421875,140.07000732421875,140.07000732421875,243,0.0,0.0
2024-07-09 15:14:00-04:00,140.07000732421875,140.1199951171875,140.07000732421875,140.1199951171875,415,0.0,0.0
2024-07-09 15:17:00-04:00,140.00999450683594,140.1300048828125,140.00999450683594,140.08999633789062,1512,0.0,0.0
2024-07-09 15:20:00-04:00,140.0850067138672,140.0850067138672,140.0850067138672,140.0850067138672,5093,0.0,0.0
2024-07-09 15:23:00-04:00,140.16990661621094,140.16990661621094,140.16990661621094,140.16990661621094,527,0.0,0.0
2024-07-09 15:25:00-04:00,140.10000610351562,140.10000610351562,140.02999877929688,140.02999877929688,323,0.0,0.0
2024-07-09 15:26:00-04:00,140.02999877929688,140.0500030517578,140.00999450683594,140.0500030517578,939,0.0,0.0
2024-07-09 15:27:00-04:00,139.97999572753906,139.97999572753906,139.83999633789062,139.83999633789062,703,0.0,0.0
2024-07-09 15:28:00-04:00,139.8699951171875,139.875,139.8000030517578,139.8000030517578,411,0.0,0.0
2024-07-09 15:30:00-04:00,139.8800048828125,139.8800048828125,139.8800048828125,139.8800048828125,405,0.0,0.0
2024-07-09 15:31:00-04:00,139.81100463867188,139.81100463867188,139.81100463867188,139.81100463867188,154,0.0,0.0
2024-07-09 15:32:00-04:00,139.9499969482422,140.0,139.94000244140625,139.9949951171875,2624,0.0,0.0
2024-07-09 15:35:00-04:00,139.91000366210938,139.99000549316406,139.91000366210938,139.99000549316406,2754,0.0,0.0
2024-07-09 15:36:00-04:00,139.95199584960938,140.05999755859375,139.95199584960938,140.05999755859375,848,0.0,0.0
2024-07-09 15:38:00-04:00,140.0800018310547,140.1300048828125,140.0800018310547,140.1300048828125,1140,0.0,0.0
2024-07-09 15:39:00-04:00,140.1699981689453,140.1699981689453,140.1699981689453,140.1699981689453,374,0.0,0.0
2024-07-09 15:40:00-04:00,140.1699981689453,140.1699981689453,140.1699981689453,140.1699981689453,505,0.0,0.0
2024-07-09 15:41:00-04:00,140.06100463867188,140.06100463867188,140.06100463867188,140.06100463867188,381,0.0,0.0
2024-07-09 15:42:00-04:00,140.1199951171875,140.1199951171875,140.0500030517578,140.09500122070312,1008,0.0,0.0
2024-07-09 15:43:00-04:00,140.08999633789062,140.08999633789062,140.02000427246094,140.04100036621094,2018,0.0,0.0
2024-07-09 15:44:00-04:00,140.0449981689453,140.11000061035156,140.0449981689453,140.11000061035156,556,0.0,0.0
2024-07-09 15:45:00-04:00,140.0399932861328,140.0399932861328,139.9149932861328,139.9149932861328,1914,0.0,0.0
2024-07-09 15:46:00-04:00,139.86000061035156,139.86000061035156,139.83999633789062,139.83999633789062,364,0.0,0.0
2024-07-09 15:47:00-04:00,139.82000732421875,139.82000732421875,139.75,139.75,759,0.0,0.0
2024-07-09 15:48:00-04:00,139.77999877929688,139.7949981689453,139.75100708007812,139.7949981689453,551,0.0,0.0
2024-07-09 15:49:00-04:00,139.80499267578125,139.80499267578125,139.75999450683594,139.75999450683594,575,0.0,0.0
2024-07-09 15:50:00-04:00,139.80499267578125,139.92999267578125,139.80499267578125,139.8800048828125,3874,0.0,0.0
2024-07-09 15:51:00-04:00,139.9499969482422,140.10000610351562,139.9499969482422,140.10000610351562,2880,0.0,0.0
2024-07-09 15:52:00-04:00,140.0749969482422,140.1300048828125,140.0749969482422,140.1300048828125,833,0.0,0.0
2024-07-09 15:54:00-04:00,140.1750030517578,140.1750030517578,140.1750030517578,140.1750030517578,0,0.0,0.0
2024-07-09 15:55:00-04:00,140.16000366210938,140.20599365234375,140.1300048828125,140.20599365234375,132973,0.0,0.0
2024-07-09 15:56:00-04:00,140.22999572753906,140.25,140.1739959716797,140.1909942626953,7129,0.0,0.0
2024-07-09 15:57:00-04:00,140.2100067138672,140.2100067138672,140.16000366210938,140.16000366210938,4586,0.0,0.0
2024-07-09 15:58:00-04:00,140.13999938964844,140.2050018310547,140.13999938964844,140.1999969482422,3752,0.0,0.0
2024-07-09 15:59:00-04:00,140.16000366210938,140.25,140.02000427246094,140.1300048828125,13218,0.0,0.0
2024-07-10 09:30:00-04:00,140.75,140.75,140.75,140.75,1265,0.0,0.0
2024-07-10 09:33:00-04:00,141.00999450683594,141.05999755859375,141.00999450683594,141.05999755859375,952,0.0,0.0
2024-07-10 09:45:00-04:00,140.60000610351562,140.60000610351562,140.60000610351562,140.60000610351562,268,0.0,0.0
2024-07-10 09:48:00-04:00,141.13999938964844,141.13999938964844,141.13999938964844,141.13999938964844,387,0.0,0.0
2024-07-10 10:00:00-04:00,140.9550018310547,140.9550018310547,140.9550018310547,140.9550018310547,184,0.0,0.0
2024-07-10 10:03:00-04:00,141.26499938964844,141.26499938964844,141.26499938964844,141.26499938964844,513,0.0,0.0
2024-07-10 10:09:00-04:00,141.4499969482422,141.4600067138672,141.3000030517578,141.4600067138672,1139,0.0,0.0
2024-07-10 10:11:00-04:00,141.2100067138672,141.41000366210938,141.2100067138672,141.41000366210938,1273,0.0,0.0
2024-07-10 10:18:00-04:00,141.0500030517578,141.05999755859375,141.0500030517578,141.05999755859375,1067,0.0,0.0
2024-07-10 10:22:00-04:00,140.91000366210938,140.91000366210938,140.91000366210938,140.91000366210938,203,0.0,0.0
2024-07-10 10:25:00-04:00,140.91000366210938,140.91000366210938,140.91000366210938,140.91000366210938,270,0.0,0.0
2024-07-10 10:27:00-04:00,141.1199951171875,141.1199951171875,141.1199951171875,141.1199951171875,106,0.0,0.0
2024-07-10 10:28:00-04:00,140.77999877929688,140.77999877929688,140.77999877929688,140.77999877929688,126,0.0,0.0
2024-07-10 10:30:00-04:00,140.96499633789062,140.96499633789062,140.96499633789062,140.96499633789062,114,0.0,0.0
2024-07-10 10:31:00-04:00,141.0,141.0,141.0,141.0,100,0.0,0.0
2024-07-10 10:32:00-04:00,140.89999389648438,140.89999389648438,140.89999389648438,140.89999389648438,602,0.0,0.0
2024-07-10 10:35:00-04:00,141.00999450683594,141.00999450683594,141.00999450683594,141.00999450683594,211,0.0,0.0
2024-07-10 10:38:00-04:00,140.9600067138672,140.97000122070312,140.8800048828125,140.97000122070312,732,0.0,0.0
2024-07-10 10:40:00-04:00,140.89999389648438,140.89999389648438,140.89999389648438,140.89999389648438,220,0.0,0.0
2024-07-10 10:41:00-04:00,140.89999389648438,140.89999389648438,140.89999389648438,140.89999389648438,241,0.0,0.0
2024-07-10 10:42:00-04:00,140.80999755859375,140.8386993408203,140.74000549316406,140.8386993408203,684,0.0,0.0
2024-07-10 10:45:00-04:00,140.58999633789062,140.58999633789062,140.58999633789062,140.58999633789062,164,0.0,0.0
2024-07-10 10:46:00-04:00,140.75,140.75,140.75,140.75,156,0.0,0.0
2024-07-10 10:48:00-04:00,140.57000732421875,140.57000732421875,140.57000732421875,140.57000732421875,305,0.0,0.0
2024-07-10 10:52:00-04:00,140.74000549316406,140.74000549316406,140.74000549316406,140.74000549316406,251,0.0,0.0
2024-07-10 10:55:00-04:00,140.72999572753906,140.72999572753906,140.72999572753906,140.72999572753906,124,0.0,0.0
2024-07-10 10:57:00-04:00,140.8699951171875,140.8699951171875,140.8699951171875,140.8699951171875,1294,0.0,0.0
2024-07-10 10:58:00-04:00,140.77999877929688,140.9199981689453,140.77999877929688,140.9199981689453,277,0.0,0.0
2024-07-10 10:59:00-04:00,141.11000061035156,141.11000061035156,141.11000061035156,141.11000061035156,271,0.0,0.0
2024-07-10 11:02:00-04:00,140.80999755859375,140.80999755859375,140.80999755859375,140.80999755859375,116,0.0,0.0
2024-07-10 11:05:00-04:00,140.77000427246094,140.77000427246094,140.77000427246094,140.77000427246094,184,0.0,0.0
2024-07-10 11:08:00-04:00,140.7899932861328,140.7899932861328,140.7899932861328,140.7899932861328,113,0.0,0.0
2024-07-10 11:09:00-04:00,140.80999755859375,141.1300048828125,140.80999755859375,141.1300048828125,553,0.0,0.0
2024-07-10 11:10:00-04:00,140.92999267578125,140.92999267578125,140.92999267578125,140.92999267578125,100,0.0,0.0
2024-07-10 11:12:00-04:00,140.77000427246094,140.77000427246094,140.77000427246094,140.77000427246094,504,0.0,0.0
2024-07-10 11:15:00-04:00,140.77000427246094,140.77000427246094,140.77000427246094,140.77000427246094,417,0.0,0.0
2024-07-10 11:18:00-04:00,140.74000549316406,140.9199981689453,140.72000122070312,140.72000122070312,1070,0.0,0.0
2024-07-10 11:21:00-04:00,140.77000427246094,140.77000427246094,140.72999572753906,140.72999572753906,438,0.0,0.0
2024-07-10 11:26:00-04:00,140.75,140.75,140.75,140.75,679,0.0,0.0
2024-07-10 11:36:00-04:00,140.67999267578125,140.67999267578125,140.67999267578125,140.67999267578125,166,0.0,0.0
2024-07-10 11:38:00-04:00,140.67999267578125,140.67999267578125,140.67999267578125,140.67999267578125,139,0.0,0.0
2024-07-10 11:39:00-04:00,140.85499572753906,140.85499572753906,140.85499572753906,140.85499572753906,137,0.0,0.0
2024-07-10 11:40:00-04:00,140.86500549316406,140.86500549316406,140.86500549316406,140.86500549316406,105,0.0,0.0
2024-07-10 11:41:00-04:00,140.86500549316406,140.86500549316406,140.86500549316406,140.86500549316406,3083,0.0,0.0
2024-07-10 11:42:00-04:00,140.80999755859375,140.80999755859375,140.80999755859375,140.80999755859375,453,0.0,0.0
2024-07-10 11:44:00-04:00,140.58009338378906,140.58009338378906,140.58009338378906,140.58009338378906,828,0.0,0.0
2024-07-10 11:53:00-04:00,140.92999267578125,140.97000122070312,140.85000610351562,140.91000366210938,780,0.0,0.0
2024-07-10 11:56:00-04:00,141.08999633789062,141.08999633789062,141.08999633789062,141.08999633789062,254,0.0,0.0
2024-07-10 12:01:00-04:00,141.0,141.0,141.0,141.0,442,0.0,0.0
2024-07-10 12:08:00-04:00,141.03500366210938,141.03500366210938,141.03500366210938,141.03500366210938,196,0.0,0.0
2024-07-10 12:10:00-04:00,141.1300048828125,141.1300048828125,141.1300048828125,141.1300048828125,113,0.0,0.0
2024-07-10 12:11:00-04:00,141.13999938964844,141.13999938964844,141.13999938964844,141.13999938964844,1280,0.0,0.0
2024-07-10 12:15:00-04:00,141.38999938964844,141.38999938964844,141.38999938964844,141.38999938964844,200,0.0,0.0
2024-07-10 12:16:00-04:00,141.25999450683594,141.25999450683594,141.25999450683594,141.25999450683594,248,0.0,0.0
2024-07-10 12:17:00-04:00,141.24000549316406,141.24000549316406,141.24000549316406,141.24000549316406,1150,0.0,0.0
2024-07-10 12:30:00-04:00,141.23599243164062,141.23599243164062,141.23599243164062,141.23599243164062,303,0.0,0.0
2024-07-10 12:33:00-04:00,141.24000549316406,141.24000549316406,141.24000549316406,141.24000549316406,600,0.0,0.0
2024-07-10 12:39:00-04:00,141.15750122070312,141.15750122070312,141.15750122070312,141.15750122070312,691,0.0,0.0
2024-07-10 12:50:00-04:00,141.23500061035156,141.23500061035156,141.23500061035156,141.23500061035156,711,0.0,0.0
2024-07-10 12:53:00-04:00,141.3300018310547,141.35499572753906,141.3249969482422,141.35499572753906,462,0.0,0.0
2024-07-10 12:54:00-04:00,141.36000061035156,141.4499969482422,141.36000061035156,141.4499969482422,1640,0.0,0.0
2024-07-10 13:01:00-04:00,141.375,141.375,141.375,141.375,554,0.0,0.0
2024-07-10 13:06:00-04:00,141.36500549316406,141.36500549316406,141.32000732421875,141.32000732421875,417,0.0,0.0
2024-07-10 13:07:00-04:00,141.3000030517578,141.3000030517578,141.3000030517578,141.3000030517578,640,0.0,0.0
2024-07-10 13:16:00-04:00,141.27999877929688,141.27999877929688,141.27999877929688,141.27999877929688,124,0.0,0.0
2024-07-10 13:18:00-04:00,141.2200927734375,141.2200927734375,141.2200927734375,141.2200927734375,431,0.0,0.0
2024-07-10 13:23:00-04:00,141.3300018310547,141.3300018310547,141.2816925048828,141.2816925048828,428,0.0,0.0
2024-07-10 13:24:00-04:00,141.22000122070312,141.22000122070312,141.22000122070312,141.22000122070312,232,0.0,0.0
2024-07-10 13:25:00-04:00,141.1699981689453,141.1699981689453,141.1699981689453,141.1699981689453,415,0.0,0.0
2024-07-10 13:30:00-04:00,141.05999755859375,141.05999755859375,141.02499389648438,141.02499389648438,403,0.0,0.0
2024-07-10 13:34:00-04:00,140.92999267578125,140.92999267578125,140.92999267578125,140.92999267578125,214,0.0,0.0
2024-07-10 13:35:00-04:00,140.83999633789062,140.83999633789062,140.80999755859375,140.80999755859375,673,0.0,0.0
2024-07-10 13:36:00-04:00,140.8699951171875,140.8800048828125,140.8699951171875,140.8800048828125,929,0.0,0.0
2024-07-10 13:44:00-04:00,140.86000061035156,140.86000061035156,140.86000061035156,140.86000061035156,241,0.0,0.0
2024-07-10 13:47:00-04:00,140.9199981689453,140.92999267578125,140.9199981689453,140.92999267578125,407,0.0,0.0
2024-07-10 13:51:00-04:00,140.83999633789062,140.83999633789062,140.83999633789062,140.83999633789062,237,0.0,0.0
2024-07-10 13:54:00-04:00,140.97999572753906,140.97999572753906,140.97999572753906,140.97999572753906,427,0.0,0.0
2024-07-10 13:57:00-04:00,141.0198974609375,141.0198974609375,141.0198974609375,141.0198974609375,739,0.0,0.0
2024-07-10 14:09:00-04:00,140.97999572753906,140.97999572753906,140.97999572753906,140.97999572753906,298,0.0,0.0
2024-07-10 14:10:00-04:00,141.02000427246094,141.02000427246094,141.02000427246094,141.02000427246094,931,0.0,0.0
2024-07-10 14:12:00-04:00,141.13250732421875,141.13250732421875,141.13250732421875,141.13250732421875,555,0.0,0.0
2024-07-10 14:17:00-04:00,141.13999938964844,141.13999938964844,141.13999938964844,141.13999938964844,553,0.0,0.0
2024-07-10 14:21:00-04:00,141.25,141.25,141.25,141.25,483,0.0,0.0
2024-07-10 14:30:00-04:00,141.1999969482422,141.1999969482422,141.1300048828125,141.1300048828125,383,0.0,0.0
2024-07-10 14:31:00-04:00,141.1999969482422,141.25999450683594,141.1999969482422,141.25999450683594,692,0.0,0.0
2024-07-10 14:35:00-04:00,141.32000732421875,141.32000732421875,141.32000732421875,141.32000732421875,357,0.0,0.0
2024-07-10 14:36:00-04:00,141.27999877929688,141.27999877929688,141.27999877929688,141.27999877929688,605,0.0,0.0
2024-07-10 14:40:00-04:00,141.24000549316406,141.24000549316406,141.24000549316406,141.24000549316406,983,0.0,0.0
2024-07-10 14:49:00-04:00,141.30999755859375,141.30999755859375,141.30999755859375,141.30999755859375,164,0.0,0.0
2024-07-10 14:50:00-04:00,141.10000610351562,141.10000610351562,141.10000610351562,141.10000610351562,759,0.0,0.0
2024-07-10 14:57:00-04:00,141.27999877929688,141.30999755859375,141.2100067138672,141.2100067138672,1663,0.0,0.0
2024-07-10 14:59:00-04:00,141.41000366210938,141.41000366210938,141.41000366210938,141.41000366210938,315,0.0,0.0
2024-07-10 15:00:00-04:00,141.4199981689453,141.4199981689453,141.4199981689453,141.4199981689453,227,0.0,0.0
2024-07-10 15:02:00-04:00,141.36500549316406,141.36500549316406,141.36500549316406,141.36500549316406,191,0.0,0.0
2024-07-10 15:04:00-04:00,141.3699951171875,141.3699951171875,141.3699951171875,141.3699951171875,1913,0.0,0.0
2024-07-10 15:06:00-04:00,141.27000427246094,141.27000427246094,141.27000427246094,141.27000427246094,389,0.0,0.0
2024-07-10 15:13:00-04:00,141.35000610351562,141.35000610351562,141.35000610351562,141.35000610351562,190,0.0,0.0
2024-07-10 15:15:00-04:00,141.39999389648438,141.41000366210938,141.38999938964844,141.38999938964844,1301,0.0,0.0
2024-07-10 15:16:00-04:00,141.52999877929688,141.52999877929688,141.52999877929688,141.52999877929688,510,0.0,0.0
2024-07-10 15:18:00-04:00,141.4019012451172,141.5449981689453,141.4019012451172,141.5449981689453,761,0.0,0.0
2024-07-10 15:19:00-04:00,141.5050048828125,141.5050048828125,141.44000244140625,141.44000244140625,1464,0.0,0.0
2024-07-10 15:26:00-04:00,141.37249755859375,141.37249755859375,141.37249755859375,141.37249755859375,361,0.0,0.0
2024-07-10 15:31:00-04:00,141.44000244140625,141.44000244140625,141.40499877929688,141.40499877929688,699,0.0,0.0
2024-07-10 15:33:00-04:00,141.5,141.5,141.5,141.5,1474,0.0,0.0
2024-07-10 15:36:00-04:00,141.49000549316406,141.49000549316406,141.49000549316406,141.49000549316406,576,0.0,0.0
2024-07-10 15:38:00-04:00,141.40499877929688,141.40499877929688,141.40499877929688,141.40499877929688,287,0.0,0.0
2024-07-10 15:39:00-04:00,141.33999633789062,141.40699768066406,141.33999633789062,141.40699768066406,994,0.0,0.0
2024-07-10 15:40:00-04:00,141.39999389648438,141.39999389648438,141.39999389648438,141.39999389648438,308,0.0,0.0
2024-07-10 15:43:00-04:00,141.40499877929688,141.40499877929688,141.40499877929688,141.40499877929688,516,0.0,0.0
2024-07-10 15:45:00-04:00,141.49000549316406,141.49000549316406,141.49000549316406,141.49000549316406,815,0.0,0.0
2024-07-10 15:46:00-04:00,141.52999877929688,141.57000732421875,141.47500610351562,141.52999877929688,1181,0.0,0.0
2024-07-10 15:47:00-04:00,141.52999877929688,141.52999877929688,141.52999877929688,141.52999877929688,100,0.0,0.0
2024-07-10 15:48:00-04:00,141.57000732421875,141.57000732421875,141.5500030517578,141.5500030517578,349,0.0,0.0
2024-07-10 15:49:00-04:00,141.5399932861328,141.5399932861328,141.5399932861328,141.5399932861328,199,0.0,0.0
2024-07-10 15:50:00-04:00,141.49000549316406,141.51119995117188,141.4499969482422,141.51119995117188,3086,0.0,0.0
2024-07-10 15:51:00-04:00,141.44700622558594,141.5800018310547,141.44700622558594,141.50999450683594,1786,0.0,0.0
2024-07-10 15:52:00-04:00,141.5500030517578,141.5500030517578,141.5500030517578,141.5500030517578,519,0.0,0.0
2024-07-10 15:53:00-04:00,141.6300048828125,141.6300048828125,141.6300048828125,141.6300048828125,488,0.0,0.0
2024-07-10 15:54:00-04:00,141.5800018310547,141.5800018310547,141.5500030517578,141.57000732421875,1782,0.0,0.0
2024-07-10 15:55:00-04:00,141.5,141.55999755859375,141.5,141.55999755859375,1829,0.0,0.0
2024-07-10 15:56:00-04:00,141.50999450683594,141.50999450683594,141.47999572753906,141.47999572753906,2238,0.0,0.0
2024-07-10 15:57:00-04:00,141.5,141.5,141.39500427246094,141.42999267578125,2472,0.0,0.0
2024-07-10 15:58:00-04:00,141.44500732421875,141.44500732421875,141.38999938964844,141.38999938964844,3567,0.0,0.0
2024-07-10 15:59:00-04:00,141.44000244140625,141.44000244140625,141.27000427246094,141.2899932861328,10586,0.0,0.0
2024-07-11 09:30:00-04:00,141.1999969482422,141.1999969482422,140.9199981689453,140.9199981689453,2240,0.0,0.0
2024-07-11 09:37:00-04:00,140.75,140.75,140.75,140.75,195,0.0,0.0
2024-07-11 09:45:00-04:00,141.50999450683594,141.50999450683594,141.50999450683594,141.50999450683594,151,0.0,0.0
2024-07-11 09:47:00-04:00,141.5800018310547,141.89999389648438,141.5800018310547,141.88999938964844,1086,0.0,0.0
2024-07-11 09:49:00-04:00,141.78500366210938,141.78500366210938,141.78500366210938,141.78500366210938,385,0.0,0.0
2024-07-11 09:53:00-04:00,142.1199951171875,142.1300048828125,142.1199951171875,142.1300048828125,598,0.0,0.0
2024-07-11 09:57:00-04:00,142.3990020751953,142.3990020751953,142.3990020751953,142.3990020751953,165,0.0,0.0
2024-07-11 10:00:00-04:00,142.33999633789062,142.33999633789062,142.33999633789062,142.33999633789062,466,0.0,0.0
2024-07-11 10:04:00-04:00,142.3000030517578,142.35000610351562,142.3000030517578,142.35000610351562,759,0.0,0.0
2024-07-11 10:06:00-04:00,142.49000549316406,142.5,142.48500061035156,142.48500061035156,1972,0.0,0.0
2024-07-11 10:10:00-04:00,142.5500030517578,142.5500030517578,142.5500030517578,142.5500030517578,227,0.0,0.0
2024-07-11 10:11:00-04:00,142.5,142.52999877929688,142.5,142.5,1556,0.0,0.0
2024-07-11 10:19:00-04:00,142.6300048828125,142.6300048828125,142.6300048828125,142.6300048828125,302,0.0,0.0
2024-07-11 10:21:00-04:00,142.52000427246094,142.7299041748047,142.4149932861328,142.4149932861328,1481,0.0,0.0
2024-07-11 10:26:00-04:00,142.33999633789062,142.33999633789062,142.33999633789062,142.33999633789062,304,0.0,0.0
2024-07-11 10:27:00-04:00,142.3000030517578,142.3000030517578,142.3000030517578,142.3000030517578,295,0.0,0.0
2024-07-11 10:29:00-04:00,142.3300018310547,142.3300018310547,142.3300018310547,142.3300018310547,262,0.0,0.0
2024-07-11 10:30:00-04:00,142.4499969482422,142.4499969482422,142.4499969482422,142.4499969482422,240,0.0,0.0
2024-07-11 10:31:00-04:00,142.41600036621094,142.41600036621094,142.41600036621094,142.41600036621094,1035,0.0,0.0
2024-07-11 10:41:00-04:00,142.3800048828125,142.3800048828125,142.32000732421875,142.32000732421875,485,0.0,0.0
2024-07-11 10:43:00-04:00,142.32000732421875,142.32000732421875,142.32000732421875,142.32000732421875,208,0.0,0.0
2024-07-11 10:44:00-04:00,142.2100067138672,142.2100067138672,142.2100067138672,142.2100067138672,107,0.0,0.0
2024-07-11 10:45:00-04:00,142.2100067138672,142.2100067138672,142.2100067138672,142.2100067138672,250,0.0,0.0
2024-07-11 10:52:00-04:00,142.42999267578125,142.42999267578125,142.4149932861328,142.4149932861328,367,0.0,0.0
2024-07-11 10:53:00-04:00,142.3699951171875,142.3699951171875,142.3699951171875,142.3699951171875,364,0.0,0.0
2024-07-11 10:54:00-04:00,142.50999450683594,142.50999450683594,142.41000366210938,142.50999450683594,1265,0.0,0.0
2024-07-11 10:57:00-04:00,142.48500061035156,142.57000732421875,142.4199981689453,142.57000732421875,791,0.0,0.0
2024-07-11 10:58:00-04:00,142.57000732421875,142.5800018310547,142.57000732421875,142.5800018310547,525,0.0,0.0
2024-07-11 10:59:00-04:00,142.72999572753906,142.72999572753906,142.72999572753906,142.72999572753906,288,0.0,0.0
2024-07-11 11:01:00-04:00,142.66000366210938,142.66000366210938,142.66000366210938,142.66000366210938,1451,0.0,0.0
2024-07-11 11:11:00-04:00,142.6699981689453,142.6699981689453,142.66000366210938,142.66000366210938,203,0.0,0.0
2024-07-11 11:12:00-04:00,142.6649932861328,142.6649932861328,142.47000122070312,142.47000122070312,1262,0.0,0.0
2024-07-11 11:13:00-04:00,142.46499633789062,142.46499633789062,142.3300018310547,142.3300018310547,267,0.0,0.0
2024-07-11 11:14:00-04:00,142.4199981689453,142.4199981689453,142.4199981689453,142.4199981689453,259,0.0,0.0
2024-07-11 11:16:00-04:00,142.40499877929688,142.40499877929688,142.40499877929688,142.40499877929688,237,0.0,0.0
2024-07-11 11:18:00-04:00,142.39500427246094,142.39500427246094,142.39500427246094,142.39500427246094,238,0.0,0.0
2024-07-11 11:24:00-04:00,142.4149932861328,142.4149932861328,142.3300018310547,142.3300018310547,334,0.0,0.0
2024-07-11 11:25:00-04:00,142.41000366210938,142.41000366210938,142.41000366210938,142.41000366210938,833,0.0,0.0
2024-07-11 11:27:00-04:00,142.42999267578125,142.44000244140625,142.39999389648438,142.44000244140625,1360,0.0,0.0
2024-07-11 11:28:00-04:00,142.4600067138672,142.49000549316406,142.4600067138672,142.49000549316406,1031,0.0,0.0
2024-07-11 11:29:00-04:00,142.44500732421875,142.4499969482422,142.44119262695312,142.4499969482422,3031,0.0,0.0
2024-07-11 11:30:00-04:00,142.49000549316406,142.67999267578125,142.49000549316406,142.64999389648438,1904,0.0,0.0
2024-07-11 11:31:00-04:00,142.60000610351562,142.6999969482422,142.60000610351562,142.6999969482422,504,0.0,0.0
2024-07-11 11:32:00-04:00,142.7550048828125,142.7550048828125,142.60000610351562,142.60000610351562,5779,0.0,0.0
2024-07-11 11:33:00-04:00,142.69000244140625,142.69000244140625,142.5800018310547,142.5800018310547,624,0.0,0.0
2024-07-11 11:34:00-04:00,142.4199981689453,142.55499267578125,142.4199981689453,142.55499267578125,301,0.0,0.0
2024-07-11 11:35:00-04:00,142.52999877929688,142.69000244140625,142.52999877929688,142.56500244140625,3358,0.0,0.0
2024-07-11 11:36:00-04:00,142.57000732421875,142.66000366210938,142.57000732421875,142.66000366210938,790,0.0,0.0
2024-07-11 11:37:00-04:00,142.57989501953125,142.76499938964844,142.57989501953125,142.76499938964844,2836,0.0,0.0
2024-07-11 11:38:00-04:00,142.69000244140625,142.7050018310547,142.64999389648438,142.7050018310547,1789,0.0,0.0
2024-07-11 11:39:00-04:00,142.85000610351562,142.85000610351562,142.63999938964844,142.66000366210938,1596,0.0,0.0
2024-07-11 11:40:00-04:00,142.68499755859375,142.68499755859375,142.68499755859375,142.68499755859375,204,0.0,0.0
2024-07-11 11:42:00-04:00,142.6699981689453,142.69000244140625,142.6699981689453,142.69000244140625,202,0.0,0.0
2024-07-11 11:43:00-04:00,142.69000244140625,142.77000427246094,142.69000244140625,142.69500732421875,985,0.0,0.0
2024-07-11 11:45:00-04:00,142.68499755859375,142.68499755859375,142.68499755859375,142.68499755859375,858,0.0,0.0
2024-07-11 11:48:00-04:00,142.76499938964844,142.76499938964844,142.76499938964844,142.76499938964844,254,0.0,0.0
2024-07-11 11:49:00-04:00,142.8000030517578,142.8000030517578,142.8000030517578,142.8000030517578,261,0.0,0.0
2024-07-11 11:51:00-04:00,142.72999572753906,142.82000732421875,142.72999572753906,142.8000030517578,1540,0.0,0.0
2024-07-11 11:52:00-04:00,142.8699951171875,142.8699951171875,142.83999633789062,142.83999633789062,396,0.0,0.0
2024-07-11 11:54:00-04:00,142.88999938964844,142.91000366210938,142.88999938964844,142.91000366210938,202,0.0,0.0
2024-07-11 11:55:00-04:00,142.91000366210938,142.91000366210938,142.91000366210938,142.91000366210938,114,0.0,0.0
2024-07-11 11:56:00-04:00,142.88999938964844,143.10000610351562,142.88999938964844,143.10000610351562,6515,0.0,0.0
2024-07-11 11:57:00-04:00,143.14999389648438,143.27999877929688,143.11000061035156,143.27999877929688,5521,0.0,0.0
2024-07-11 11:58:00-04:00,143.22000122070312,143.3000030517578,143.18319702148438,143.3000030517578,3965,0.0,0.0
2024-07-11 11:59:00-04:00,143.14999389648438,143.1999969482422,143.14999389648438,143.1999969482422,1660,0.0,0.0
2024-07-11 12:00:00-04:00,143.24000549316406,143.24000549316406,142.97999572753906,142.97999572753906,5288,0.0,0.0
2024-07-11 12:01:00-04:00,143.0,143.0,143.0,143.0,524,0.0,0.0
2024-07-11 12:03:00-04:00,142.9199981689453,142.9199981689453,142.9199981689453,142.9199981689453,290,0.0,0.0
2024-07-11 12:08:00-04:00,142.6300048828125,142.6300048828125,142.60000610351562,142.60000610351562,831,0.0,0.0
2024-07-11 12:09:00-04:00,142.5500030517578,142.5500030517578,142.5500030517578,142.5500030517578,103,0.0,0.0
2024-07-11 12:10:00-04:00,142.5800018310547,142.6999969482422,142.5800018310547,142.6999969482422,849,0.0,0.0
2024-07-11 12:11:00-04:00,142.72000122070312,142.72000122070312,142.6999969482422,142.6999969482422,446,0.0,0.0
2024-07-11 12:13:00-04:00,142.75999450683594,142.75999450683594,142.75999450683594,142.75999450683594,590,0.0,0.0
2024-07-11 12:19:00-04:00,142.6300048828125,142.6300048828125,142.6300048828125,142.6300048828125,309,0.0,0.0
2024-07-11 12:20:00-04:00,142.63999938964844,142.69500732421875,142.63999938964844,142.69500732421875,308,0.0,0.0
2024-07-11 12:21:00-04:00,142.67999267578125,142.67999267578125,142.67999267578125,142.67999267578125,218,0.0,0.0
2024-07-11 12:24:00-04:00,142.52999877929688,142.52999877929688,142.52999877929688,142.52999877929688,243,0.0,0.0
2024-07-11 12:27:00-04:00,142.55499267578125,142.55499267578125,142.46499633789062,142.46499633789062,327,0.0,0.0
2024-07-11 12:29:00-04:00,142.4499969482422,142.4499969482422,142.4499969482422,142.4499969482422,130,0.0,0.0
2024-07-11 12:31:00-04:00,142.42999267578125,142.42999267578125,142.42999267578125,142.42999267578125,201,0.0,0.0
2024-07-11 12:32:00-04:00,142.50999450683594,142.50999450683594,142.50999450683594,142.50999450683594,103,0.0,0.0
2024-07-11 12:34:00-04:00,142.50999450683594,142.50999450683594,142.42999267578125,142.42999267578125,1845,0.0,0.0
2024-07-11 12:37:00-04:00,142.35000610351562,142.35000610351562,142.35000610351562,142.35000610351562,204,0.0,0.0
2024-07-11 12:38:00-04:00,142.3520050048828,142.3520050048828,142.3520050048828,142.3520050048828,226,0.0,0.0
2024-07-11 12:40:00-04:00,142.22999572753906,142.22999572753906,142.22999572753906,142.22999572753906,122,0.0,0.0
2024-07-11 12:41:00-04:00,142.32000732421875,142.32000732421875,142.22999572753906,142.22999572753906,666,0.0,0.0
2024-07-11 12:44:00-04:00,142.38499450683594,142.38499450683594,142.38499450683594,142.38499450683594,139,0.0,0.0
2024-07-11 12:46:00-04:00,142.4600067138672,142.4600067138672,142.4600067138672,142.4600067138672,121,0.0,0.0
2024-07-11 12:51:00-04:00,142.4499969482422,142.4499969482422,142.4499969482422,142.4499969482422,215,0.0,0.0
2024-07-11 12:54:00-04:00,142.4499969482422,142.4499969482422,142.38499450683594,142.4499969482422,852,0.0,0.0
2024-07-11 12:56:00-04:00,142.50999450683594,142.50999450683594,142.50999450683594,142.50999450683594,144,0.0,0.0
2024-07-11 12:58:00-04:00,142.44000244140625,142.44000244140625,142.44000244140625,142.44000244140625,308,0.0,0.0
2024-07-11 12:59:00-04:00,142.61000061035156,142.61000061035156,142.61000061035156,142.61000061035156,582,0.0,0.0
2024-07-11 13:02:00-04:00,142.63999938964844,142.63999938964844,142.63999938964844,142.63999938964844,230,0.0,0.0
2024-07-11 13:03:00-04:00,142.50999450683594,142.50999450683594,142.50999450683594,142.50999450683594,430,0.0,0.0
2024-07-11 13:06:00-04:00,142.57000732421875,142.57000732421875,142.57000732421875,142.57000732421875,100,0.0,0.0
2024-07-11 13:07:00-04:00,142.57000732421875,142.57000732421875,142.57000732421875,142.57000732421875,348,0.0,0.0
2024-07-11 13:12:00-04:00,142.5800018310547,142.5800018310547,142.5800018310547,142.5800018310547,158,0.0,0.0
2024-07-11 13:13:00-04:00,142.63499450683594,142.63499450683594,142.63499450683594,142.63499450683594,229,0.0,0.0
2024-07-11 13:14:00-04:00,142.52000427246094,142.52000427246094,142.52000427246094,142.52000427246094,152,0.0,0.0
2024-07-11 13:16:00-04:00,142.63999938964844,142.64999389648438,142.63999938964844,142.64999389648438,722,0.0,0.0
2024-07-11 13:17:00-04:00,142.7050018310547,142.7050018310547,142.7050018310547,142.7050018310547,257,0.0,0.0
2024-07-11 13:24:00-04:00,142.6199951171875,142.6300048828125,142.61000061035156,142.6300048828125,1240,0.0,0.0
2024-07-11 13:31:00-04:00,142.47000122070312,142.47000122070312,142.47000122070312,142.47000122070312,107,0.0,0.0
2024-07-11 13:32:00-04:00,142.5,142.57879638671875,142.5,142.57879638671875,256,0.0,0.0
2024-07-11 13:33:00-04:00,142.4770050048828,142.4770050048828,142.4770050048828,142.4770050048828,110,0.0,0.0
2024-07-11 13:34:00-04:00,142.49749755859375,142.49749755859375,142.375,142.375,1038,0.0,0.0
2024-07-11 13:36:00-04:00,142.47000122070312,142.47000122070312,142.47000122070312,142.47000122070312,419,0.0,0.0
2024-07-11 13:37:00-04:00,142.4250030517578,142.4250030517578,142.4250030517578,142.4250030517578,664,0.0,0.0
2024-07-11 13:46:00-04:00,142.3699951171875,142.3699951171875,142.3699951171875,142.3699951171875,112,0.0,0.0
2024-07-11 13:48:00-04:00,142.27000427246094,142.27000427246094,142.27000427246094,142.27000427246094,202,0.0,0.0
2024-07-11 13:50:00-04:00,142.35000610351562,142.35000610351562,142.35000610351562,142.35000610351562,306,0.0,0.0
2024-07-11 13:52:00-04:00,142.42999267578125,142.42999267578125,142.42999267578125,142.42999267578125,288,0.0,0.0
2024-07-11 13:53:00-04:00,142.5,142.5,142.5,142.5,247,0.0,0.0
2024-07-11 13:55:00-04:00,142.55999755859375,142.55999755859375,142.55999755859375,142.55999755859375,215,0.0,0.0
2024-07-11 14:00:00-04:00,142.52000427246094,142.52000427246094,142.52000427246094,142.52000427246094,482,0.0,0.0
2024-07-11 14:03:00-04:00,142.53500366210938,142.53500366210938,142.53500366210938,142.53500366210938,300,0.0,0.0
2024-07-11 14:04:00-04:00,142.4600067138672,142.4600067138672,142.4600067138672,142.4600067138672,514,0.0,0.0
2024-07-11 14:07:00-04:00,142.61000061035156,142.61000061035156,142.61000061035156,142.61000061035156,387,0.0,0.0
2024-07-11 14:11:00-04:00,142.5399932861328,142.5399932861328,142.52000427246094,142.52000427246094,417,0.0,0.0
2024-07-11 14:12:00-04:00,142.52999877929688,142.52999877929688,142.5,142.5,431,0.0,0.0
2024-07-11 14:13:00-04:00,142.55999755859375,142.63999938964844,142.55999755859375,142.63999938964844,882,0.0,0.0
2024-07-11 14:20:00-04:00,142.73500061035156,142.73500061035156,142.73500061035156,142.73500061035156,645,0.0,0.0
2024-07-11 14:21:00-04:00,142.66000366210938,142.66000366210938,142.6300048828125,142.6300048828125,630,0.0,0.0
2024-07-11 14:23:00-04:00,142.59500122070312,142.59500122070312,142.59500122070312,142.59500122070312,162,0.0,0.0
2024-07-11 14:27:00-04:00,142.39999389648438,142.39999389648438,142.39999389648438,142.39999389648438,436,0.0,0.0
2024-07-11 14:28:00-04:00,142.4550018310547,142.4550018310547,142.4550018310547,142.4550018310547,413,0.0,0.0
2024-07-11 14:32:00-04:00,142.48500061035156,142.48500061035156,142.48500061035156,142.48500061035156,121,0.0,0.0
2024-07-11 14:33:00-04:00,142.5399932861328,142.5399932861328,142.5399932861328,142.5399932861328,263,0.0,0.0
2024-07-11 14:36:00-04:00,142.42999267578125,142.48500061035156,142.42999267578125,142.4499969482422,875,0.0,0.0
2024-07-11 14:38:00-04:00,142.38999938964844,142.38999938964844,142.38999938964844,142.38999938964844,118,0.0,0.0
2024-07-11 14:40:00-04:00,142.48500061035156,142.48500061035156,142.48500061035156,142.48500061035156,225,0.0,0.0
2024-07-11 14:42:00-04:00,142.47000122070312,142.47000122070312,142.46499633789062,142.46499633789062,403,0.0,0.0
2024-07-11 14:43:00-04:00,142.5399932861328,142.5399932861328,142.5399932861328,142.5399932861328,522,0.0,0.0
2024-07-11 14:45:00-04:00,142.5399932861328,142.5399932861328,142.49000549316406,142.49000549316406,942,0.0,0.0
2024-07-11 14:46:00-04:00,142.60000610351562,142.72999572753906,142.60000610351562,142.72999572753906,1477,0.0,0.0
2024-07-11 14:50:00-04:00,142.61500549316406,142.61500549316406,142.61500549316406,142.61500549316406,465,0.0,0.0
2024-07-11 14:52:00-04:00,142.67999267578125,142.67999267578125,142.67999267578125,142.67999267578125,133,0.0,0.0
2024-07-11 14:54:00-04:00,142.57000732421875,142.5800018310547,142.57000732421875,142.5800018310547,1116,0.0,0.0
2024-07-11 15:00:00-04:00,142.5800018310547,142.5800018310547,142.57000732421875,142.57000732421875,394,0.0,0.0
2024-07-11 15:02:00-04:00,142.47500610351562,142.47500610351562,142.46499633789062,142.46499633789062,289,0.0,0.0
2024-07-11 15:03:00-04:00,142.52999877929688,142.52999877929688,142.52999877929688,142.52999877929688,255,0.0,0.0
2024-07-11 15:05:00-04:00,142.55999755859375,142.58999633789062,142.55999755859375,142.58999633789062,693,0.0,0.0
2024-07-11 15:06:00-04:00,142.47000122070312,142.47999572753906,142.4499969482422,142.4499969482422,1139,0.0,0.0
2024-07-11 15:09:00-04:00,142.3300018310547,142.38999938964844,142.3300018310547,142.38999938964844,258,0.0,0.0
2024-07-11 15:11:00-04:00,142.3300018310547,142.3300018310547,142.32000732421875,142.32000732421875,595,0.0,0.0
2024-07-11 15:16:00-04:00,142.25,142.25,142.25,142.25,227,0.0,0.0
2024-07-11 15:17:00-04:00,142.36000061035156,142.39999389648438,142.36000061035156,142.3699951171875,1364,0.0,0.0
2024-07-11 15:18:00-04:00,142.32000732421875,142.32000732421875,142.32000732421875,142.32000732421875,198,0.0,0.0
2024-07-11 15:19:00-04:00,142.32000732421875,142.3625030517578,142.32000732421875,142.3625030517578,661,0.0,0.0
2024-07-11 15:21:00-04:00,142.36500549316406,142.36500549316406,142.36500549316406,142.36500549316406,372,0.0,0.0
2024-07-11 15:22:00-04:00,142.41000366210938,142.41000366210938,142.41000366210938,142.41000366210938,886,0.0,0.0
2024-07-11 15:26:00-04:00,142.5,142.52000427246094,142.47000122070312,142.5,1634,0.0,0.0
2024-07-11 15:27:00-04:00,142.49000549316406,142.49000549316406,142.49000549316406,142.49000549316406,144,0.0,0.0
2024-07-11 15:28:00-04:00,142.5417022705078,142.5417022705078,142.5417022705078,142.5417022705078,703,0.0,0.0
2024-07-11 15:32:00-04:00,142.5399932861328,142.5399932861328,142.52999877929688,142.52999877929688,630,0.0,0.0
2024-07-11 15:33:00-04:00,142.52999877929688,142.52999877929688,142.41009521484375,142.41009521484375,1154,0.0,0.0
2024-07-11 15:34:00-04:00,142.49000549316406,142.49000549316406,142.49000549316406,142.49000549316406,406,0.0,0.0
2024-07-11 15:35:00-04:00,142.52999877929688,142.5500030517578,142.49000549316406,142.5500030517578,2213,0.0,0.0
2024-07-11 15:37:00-04:00,142.5399932861328,142.5399932861328,142.42999267578125,142.47500610351562,3482,0.0,0.0
2024-07-11 15:39:00-04:00,142.47000122070312,142.47000122070312,142.47000122070312,142.47000122070312,160,0.0,0.0
2024-07-11 15:40:00-04:00,142.46499633789062,142.46499633789062,142.46499633789062,142.46499633789062,166,0.0,0.0
2024-07-11 15:41:00-04:00,142.42999267578125,142.50999450683594,142.41000366210938,142.50999450683594,876,0.0,0.0
2024-07-11 15:42:00-04:00,142.52000427246094,142.52000427246094,142.52000427246094,142.52000427246094,469,0.0,0.0
2024-07-11 15:43:00-04:00,142.52000427246094,142.52000427246094,142.52000427246094,142.52000427246094,816,0.0,0.0
2024-07-11 15:44:00-04:00,142.47000122070312,142.52000427246094,142.47000122070312,142.52000427246094,754,0.0,0.0
2024-07-11 15:46:00-04:00,142.52000427246094,142.5399932861328,142.52000427246094,142.52000427246094,1703,0.0,0.0
2024-07-11 15:47:00-04:00,142.52999877929688,142.5399932861328,142.35000610351562,142.35000610351562,2246,0.0,0.0
2024-07-11 15:48:00-04:00,142.34500122070312,142.34500122070312,142.31500244140625,142.31500244140625,371,0.0,0.0
2024-07-11 15:49:00-04:00,142.3300018310547,142.3300018310547,142.30999755859375,142.30999755859375,494,0.0,0.0
2024-07-11 15:50:00-04:00,142.2899932861328,142.30999755859375,142.27000427246094,142.30999755859375,810,0.0,0.0
2024-07-11 15:51:00-04:00,142.35000610351562,142.4199981689453,142.35000610351562,142.4199981689453,1148,0.0,0.0
2024-07-11 15:52:00-04:00,142.4949951171875,142.52000427246094,142.4949951171875,142.52000427246094,1274,0.0,0.0
2024-07-11 15:53:00-04:00,142.47450256347656,142.5399932861328,142.47450256347656,142.5399932861328,904,0.0,0.0
2024-07-11 15:54:00-04:00,142.47999572753906,142.52999877929688,142.47000122070312,142.50999450683594,3202,0.0,0.0
2024-07-11 15:55:00-04:00,142.39999389648438,142.42999267578125,142.32000732421875,142.32000732421875,1411,0.0,0.0
2024-07-11 15:56:00-04:00,142.3300018310547,142.35000610351562,142.2899932861328,142.30999755859375,6546,0.0,0.0
2024-07-11 15:57:00-04:00,142.35000610351562,142.35000610351562,142.27999877929688,142.3300018310547,4928,0.0,0.0
2024-07-11 15:58:00-04:00,142.3300018310547,142.35000610351562,142.30999755859375,142.35000610351562,4596,0.0,0.0
2024-07-11 15:59:00-04:00,142.36000061035156,142.4149932861328,142.05999755859375,142.1300048828125,11374,0.0,0.0
2024-07-12 09:30:00-04:00,143.41000366210938,143.947998046875,143.41000366210938,143.947998046875,2044,0.0,0.0
2024-07-12 09:34:00-04:00,143.41000366210938,143.41000366210938,143.41000366210938,143.41000366210938,145,0.0,0.0
2024-07-12 09:36:00-04:00,143.44000244140625,143.44000244140625,143.44000244140625,143.44000244140625,209,0.0,0.0
2024-07-12 09:38:00-04:00,143.49000549316406,143.49000549316406,143.48500061035156,143.49000549316406,2702,0.0,0.0
2024-07-12 09:43:00-04:00,143.67999267578125,143.67999267578125,143.61500549316406,143.61500549316406,1071,0.0,0.0
2024-07-12 09:45:00-04:00,143.8300018310547,143.8300018310547,143.8300018310547,143.8300018310547,231,0.0,0.0
2024-07-12 09:51:00-04:00,143.8000030517578,143.8000030517578,143.8000030517578,143.8000030517578,305,0.0,0.0
2024-07-12 09:53:00-04:00,143.8350067138672,143.9199981689453,143.8350067138672,143.9199981689453,1348,0.0,0.0
2024-07-12 09:54:00-04:00,143.9600067138672,144.05999755859375,143.86000061035156,143.88499450683594,2775,0.0,0.0
2024-07-12 09:56:00-04:00,144.14999389648438,144.25999450683594,143.97000122070312,144.25999450683594,3427,0.0,0.0
2024-07-12 09:57:00-04:00,144.25999450683594,144.25999450683594,144.25999450683594,144.25999450683594,238,0.0,0.0
2024-07-12 09:58:00-04:00,144.2899932861328,144.2899932861328,144.2899932861328,144.2899932861328,282,0.0,0.0
2024-07-12 09:59:00-04:00,144.2899932861328,144.2899932861328,144.2899932861328,144.2899932861328,131,0.0,0.0
2024-07-12 10:00:00-04:00,144.11500549316406,144.11500549316406,144.11500549316406,144.11500549316406,768,0.0,0.0
2024-07-12 10:04:00-04:00,144.31500244140625,144.3699951171875,144.31500244140625,144.3699951171875,681,0.0,0.0
2024-07-12 10:05:00-04:00,144.5500030517578,144.5500030517578,144.4199981689453,144.4199981689453,814,0.0,0.0
2024-07-12 10:06:00-04:00,144.27000427246094,144.27000427246094,144.27000427246094,144.27000427246094,139,0.0,0.0
2024-07-12 10:07:00-04:00,144.17999267578125,144.17999267578125,144.1199951171875,144.17999267578125,1169,0.0,0.0
2024-07-12 10:10:00-04:00,143.99000549316406,144.24000549316406,143.99000549316406,144.24000549316406,1083,0.0,0.0
2024-07-12 10:12:00-04:00,144.24000549316406,144.24000549316406,144.24000549316406,144.24000549316406,354,0.0,0.0
2024-07-12 10:16:00-04:00,144.14500427246094,144.14500427246094,144.14500427246094,144.14500427246094,637,0.0,0.0
2024-07-12 10:19:00-04:00,144.25,144.25,144.25,144.25,537,0.0,0.0
2024-07-12 10:20:00-04:00,144.23500061035156,144.23500061035156,144.02999877929688,144.11500549316406,1941,0.0,0.0
2024-07-12 10:21:00-04:00,144.22000122070312,144.25,144.22000122070312,144.25,1800,0.0,0.0
2024-07-12 10:32:00-04:00,144.1999969482422,144.27499389648438,144.1999969482422,144.27499389648438,880,0.0,0.0
2024-07-12 10:34:00-04:00,144.36000061035156,144.36000061035156,144.29100036621094,144.29100036621094,921,0.0,0.0
2024-07-12 10:41:00-04:00,144.19000244140625,144.19000244140625,144.17999267578125,144.17999267578125,1625,0.0,0.0
2024-07-12 10:50:00-04:00,144.1649932861328,144.1649932861328,144.1649932861328,144.1649932861328,706,0.0,0.0
2024-07-12 10:53:00-04:00,144.25,144.25999450683594,144.25,144.25999450683594,1778,0.0,0.0
2024-07-12 11:01:00-04:00,144.36000061035156,144.36000061035156,144.36000061035156,144.36000061035156,375,0.0,0.0
2024-07-12 11:02:00-04:00,144.35000610351562,144.35000610351562,144.35000610351562,144.35000610351562,822,0.0,0.0
2024-07-12 11:03:00-04:00,144.38999938964844,144.39999389648438,144.38999938964844,144.39999389648438,1273,0.0,0.0
2024-07-12 11:06:00-04:00,144.4600067138672,144.4600067138672,144.4499969482422,144.4550018310547,523,0.0,0.0
2024-07-12 11:07:00-04:00,144.4600067138672,144.4600067138672,144.4499969482422,144.4600067138672,743,0.0,0.0
2024-07-12 11:13:00-04:00,144.49000549316406,144.49000549316406,144.49000549316406,144.49000549316406,502,0.0,0.0
2024-07-12 11:18:00-04:00,144.39999389648438,144.39999389648438,144.39999389648438,144.39999389648438,263,0.0,0.0
2024-07-12 11:19:00-04:00,144.4149932861328,144.4149932861328,144.4149932861328,144.4149932861328,492,0.0,0.0
2024-07-12 11:24:00-04:00,144.39999389648438,144.39999389648438,144.39999389648438,144.39999389648438,420,0.0,0.0
2024-07-12 11:27:00-04:00,144.4499969482422,144.4499969482422,144.4499969482422,144.4499969482422,223,0.0,0.0
2024-07-12 11:29:00-04:00,144.4600067138672,144.52999877929688,144.4600067138672,144.47000122070312,2120,0.0,0.0
2024-07-12 11:36:00-04:00,144.52000427246094,144.55999755859375,144.4499969482422,144.4499969482422,458,0.0,0.0
2024-07-12 11:39:00-04:00,144.59500122070312,144.60000610351562,144.59500122070312,144.60000610351562,390,0.0,0.0
2024-07-12 11:40:00-04:00,144.60000610351562,144.63499450683594,144.55999755859375,144.63499450683594,1266,0.0,0.0
2024-07-12 11:41:00-04:00,144.63999938964844,144.77499389648438,144.63999938964844,144.77499389648438,938,0.0,0.0
2024-07-12 11:42:00-04:00,144.72000122070312,144.83999633789062,144.72000122070312,144.83999633789062,557,0.0,0.0
2024-07-12 11:43:00-04:00,144.77999877929688,144.8000030517578,144.77999877929688,144.8000030517578,268,0.0,0.0
2024-07-12 11:44:00-04:00,144.64999389648438,144.66000366210938,144.60000610351562,144.60000610351562,1618,0.0,0.0
2024-07-12 11:45:00-04:00,144.66000366210938,144.77000427246094,144.66000366210938,144.77000427246094,1270,0.0,0.0
2024-07-12 11:47:00-04:00,144.75999450683594,144.75999450683594,144.75999450683594,144.75999450683594,260,0.0,0.0
2024-07-12 11:50:00-04:00,144.6999969482422,144.6999969482422,144.69000244140625,144.69000244140625,485,0.0,0.0
2024-07-12 11:52:00-04:00,144.58999633789062,144.58999633789062,144.58999633789062,144.58999633789062,629,0.0,0.0
2024-07-12 11:53:00-04:00,144.66000366210938,144.66000366210938,144.66000366210938,144.66000366210938,307,0.0,0.0
2024-07-12 11:56:00-04:00,144.58999633789062,144.6300048828125,144.5800018310547,144.6199951171875,1165,0.0,0.0
2024-07-12 11:57:00-04:00,144.6999969482422,144.6999969482422,144.6999969482422,144.6999969482422,1176,0.0,0.0
2024-07-12 11:59:00-04:00,144.7100067138672,144.72000122070312,144.7100067138672,144.72000122070312,336,0.0,0.0
2024-07-12 12:01:00-04:00,144.67999267578125,144.67999267578125,144.6699981689453,144.6699981689453,616,0.0,0.0
2024-07-12 12:08:00-04:00,144.6999969482422,144.6999969482422,144.6999969482422,144.6999969482422,216,0.0,0.0
2024-07-12 12:10:00-04:00,144.61000061035156,144.61000061035156,144.61000061035156,144.61000061035156,497,0.0,0.0
2024-07-12 12:13:00-04:00,144.60000610351562,144.6300048828125,144.60000610351562,144.6300048828125,433,0.0,0.0
2024-07-12 12:15:00-04:00,144.65499877929688,144.65499877929688,144.64999389648438,144.64999389648438,1590,0.0,0.0
2024-07-12 12:21:00-04:00,144.64500427246094,144.64500427246094,144.64500427246094,144.64500427246094,147,0.0,0.0
2024-07-12 12:23:00-04:00,144.6999969482422,144.6999969482422,144.6999969482422,144.6999969482422,189,0.0,0.0
2024-07-12 12:28:00-04:00,144.6999969482422,144.74000549316406,144.68499755859375,144.6999969482422,2952,0.0,0.0
2024-07-12 12:32:00-04:00,144.6925048828125,144.6925048828125,144.6925048828125,144.6925048828125,321,0.0,0.0
2024-07-12 12:34:00-04:00,144.74000549316406,144.88999938964844,144.69000244140625,144.69000244140625,4972,0.0,0.0
2024-07-12 12:37:00-04:00,144.82530212402344,144.82530212402344,144.75,144.75,803,0.0,0.0
2024-07-12 12:38:00-04:00,144.77499389648438,144.77499389648438,144.77499389648438,144.77499389648438,368,0.0,0.0
2024-07-12 12:45:00-04:00,144.7949981689453,144.83999633789062,144.7949981689453,144.83999633789062,1023,0.0,0.0
2024-07-12 12:51:00-04:00,144.85000610351562,144.85000610351562,144.83999633789062,144.85000610351562,870,0.0,0.0
2024-07-12 12:52:00-04:00,144.85000610351562,144.91000366210938,144.85000610351562,144.91000366210938,1053,0.0,0.0
2024-07-12 12:53:00-04:00,144.99000549316406,144.99000549316406,144.99000549316406,144.99000549316406,253,0.0,0.0
2024-07-12 12:57:00-04:00,145.0,145.0,145.0,145.0,416,0.0,0.0
2024-07-12 13:00:00-04:00,145.0,145.01499938964844,144.93499755859375,144.93499755859375,2851,0.0,0.0
2024-07-12 13:03:00-04:00,144.9250030517578,144.9250030517578,144.9250030517578,144.9250030517578,266,0.0,0.0
2024-07-12 13:06:00-04:00,144.9199981689453,144.9199981689453,144.9199981689453,144.9199981689453,194,0.0,0.0
2024-07-12 13:07:00-04:00,144.9199981689453,145.11000061035156,144.8699951171875,145.11000061035156,7419,0.0,0.0
2024-07-12 13:08:00-04:00,145.1300048828125,145.1300048828125,145.1300048828125,145.1300048828125,192,0.0,0.0
2024-07-12 13:09:00-04:00,145.1125030517578,145.1125030517578,145.1125030517578,145.1125030517578,375,0.0,0.0
2024-07-12 13:10:00-04:00,145.14999389648438,145.14999389648438,145.14999389648438,145.14999389648438,291,0.0,0.0
2024-07-12 13:11:00-04:00,145.17999267578125,145.24000549316406,145.1649932861328,145.24000549316406,1749,0.0,0.0
2024-07-12 13:21:00-04:00,145.2100067138672,145.2100067138672,145.2100067138672,145.2100067138672,429,0.0,0.0
2024-07-12 13:22:00-04:00,145.16000366210938,145.2100067138672,145.16000366210938,145.2100067138672,3882,0.0,0.0
2024-07-12 13:24:00-04:00,145.22999572753906,145.22999572753906,145.19000244140625,145.19000244140625,586,0.0,0.0
2024-07-12 13:25:00-04:00,145.19000244140625,145.19000244140625,145.10499572753906,145.10499572753906,2470,0.0,0.0
2024-07-12 13:32:00-04:00,145.22000122070312,145.22000122070312,145.22000122070312,145.22000122070312,571,0.0,0.0
2024-07-12 13:34:00-04:00,145.1999969482422,145.1999969482422,145.1999969482422,145.1999969482422,748,0.0,0.0
2024-07-12 13:37:00-04:00,145.2899932861328,145.2899932861328,145.2899932861328,145.2899932861328,307,0.0,0.0
2024-07-12 13:39:00-04:00,145.25999450683594,145.25999450683594,145.25999450683594,145.25999450683594,179,0.0,0.0
2024-07-12 13:40:00-04:00,145.25999450683594,145.25999450683594,145.25999450683594,145.25999450683594,247,0.0,0.0
2024-07-12 13:43:00-04:00,145.27000427246094,145.27000427246094,145.27000427246094,145.27000427246094,240,0.0,0.0
2024-07-12 13:44:00-04:00,145.22999572753906,145.27000427246094,145.22999572753906,145.27000427246094,764,0.0,0.0
2024-07-12 13:45:00-04:00,145.30999755859375,145.30999755859375,145.30999755859375,145.30999755859375,472,0.0,0.0
2024-07-12 13:47:00-04:00,145.3300018310547,145.3300018310547,145.30499267578125,145.30499267578125,408,0.0,0.0
2024-07-12 13:48:00-04:00,145.38999938964844,145.38999938964844,145.38999938964844,145.38999938964844,228,0.0,0.0
2024-07-12 13:49:00-04:00,145.33999633789062,145.33999633789062,145.33999633789062,145.33999633789062,182,0.0,0.0
2024-07-12 13:50:00-04:00,145.32000732421875,145.3699951171875,145.32000732421875,145.3699951171875,1510,0.0,0.0
2024-07-12 13:54:00-04:00,145.38999938964844,145.38999938964844,145.38999938964844,145.38999938964844,224,0.0,0.0
2024-07-12 13:55:00-04:00,145.49000549316406,145.49000549316406,145.49000549316406,145.49000549316406,664,0.0,0.0
2024-07-12 14:00:00-04:00,145.39999389648438,145.42999267578125,145.3699951171875,145.4199981689453,2847,0.0,0.0
2024-07-12 14:04:00-04:00,145.36000061035156,145.36000061035156,145.36000061035156,145.36000061035156,1052,0.0,0.0
2024-07-12 14:05:00-04:00,145.42999267578125,145.47000122070312,145.42999267578125,145.4600067138672,513,0.0,0.0
2024-07-12 14:06:00-04:00,145.47500610351562,145.47500610351562,145.47500610351562,145.47500610351562,102,0.0,0.0
2024-07-12 14:07:00-04:00,145.47999572753906,145.47999572753906,145.47999572753906,145.47999572753906,554,0.0,0.0
2024-07-12 14:13:00-04:00,145.49000549316406,145.49000549316406,145.49000549316406,145.49000549316406,1537,0.0,0.0
2024-07-12 14:19:00-04:00,145.4199981689453,145.4600067138672,145.4199981689453,145.4600067138672,1571,0.0,0.0
2024-07-12 14:20:00-04:00,145.44000244140625,145.4600067138672,145.44000244140625,145.4600067138672,309,0.0,0.0
2024-07-12 14:21:00-04:00,145.4600067138672,145.4600067138672,145.4600067138672,145.4600067138672,1121,0.0,0.0
2024-07-12 14:23:00-04:00,145.43499755859375,145.43499755859375,145.43499755859375,145.43499755859375,441,0.0,0.0
2024-07-12 14:26:00-04:00,145.39999389648438,145.42999267578125,145.33999633789062,145.4250030517578,2282,0.0,0.0
2024-07-12 14:27:00-04:00,145.39999389648438,145.39999389648438,145.39999389648438,145.39999389648438,375,0.0,0.0
2024-07-12 14:31:00-04:00,145.30999755859375,145.30999755859375,145.30999755859375,145.30999755859375,448,0.0,0.0
2024-07-12 14:34:00-04:00,145.34500122070312,145.34500122070312,145.34500122070312,145.34500122070312,149,0.0,0.0
2024-07-12 14:35:00-04:00,145.2899932861328,145.2899932861328,145.2899932861328,145.2899932861328,274,0.0,0.0
2024-07-12 14:36:00-04:00,145.33999633789062,145.33999633789062,145.33999633789062,145.33999633789062,428,0.0,0.0
2024-07-12 14:38:00-04:00,145.3350067138672,145.3350067138672,145.3350067138672,145.3350067138672,204,0.0,0.0
2024-07-12 14:39:00-04:00,145.3350067138672,145.3350067138672,145.3350067138672,145.3350067138672,240,0.0,0.0
2024-07-12 14:40:00-04:00,145.32000732421875,145.35000610351562,145.32000732421875,145.3350067138672,1298,0.0,0.0
2024-07-12 14:42:00-04:00,145.3350067138672,145.3350067138672,145.3350067138672,145.3350067138672,221,0.0,0.0
2024-07-12 14:43:00-04:00,145.3800048828125,145.3800048828125,145.3800048828125,145.3800048828125,499,0.0,0.0
2024-07-12 14:44:00-04:00,145.3350067138672,145.3350067138672,145.3350067138672,145.3350067138672,357,0.0,0.0
2024-07-12 14:46:00-04:00,145.3300018310547,145.3300018310547,145.3300018310547,145.3300018310547,136,0.0,0.0
2024-07-12 14:48:00-04:00,145.375,145.42999267578125,145.375,145.42999267578125,1724,0.0,0.0
2024-07-12 14:50:00-04:00,145.3925018310547,145.44000244140625,145.35000610351562,145.44000244140625,2551,0.0,0.0
2024-07-12 14:51:00-04:00,145.3975067138672,145.40499877929688,145.3975067138672,145.3975067138672,476,0.0,0.0
2024-07-12 14:55:00-04:00,145.3800048828125,145.40499877929688,145.3800048828125,145.40499877929688,819,0.0,0.0
2024-07-12 14:56:00-04:00,145.36000061035156,145.40249633789062,145.22000122070312,145.22000122070312,3350,0.0,0.0
2024-07-12 14:59:00-04:00,145.2100067138672,145.2100067138672,145.1699981689453,145.1699981689453,955,0.0,0.0
2024-07-12 15:01:00-04:00,145.1649932861328,145.1649932861328,145.1649932861328,145.1649932861328,342,0.0,0.0
2024-07-12 15:04:00-04:00,145.19500732421875,145.19500732421875,145.19500732421875,145.19500732421875,418,0.0,0.0
2024-07-12 15:05:00-04:00,145.25999450683594,145.2899932861328,145.25999450683594,145.25999450683594,906,0.0,0.0
2024-07-12 15:06:00-04:00,145.36000061035156,145.36000061035156,145.36000061035156,145.36000061035156,155,0.0,0.0
2024-07-12 15:07:00-04:00,145.25,145.25,145.25,145.25,272,0.0,0.0
2024-07-12 15:08:00-04:00,145.3699951171875,145.3699951171875,145.3699951171875,145.3699951171875,128,0.0,0.0
2024-07-12 15:09:00-04:00,145.44000244140625,145.44000244140625,145.44000244140625,145.44000244140625,336,0.0,0.0
2024-07-12 15:11:00-04:00,145.3125,145.3249969482422,145.30999755859375,145.30999755859375,968,0.0,0.0
2024-07-12 15:13:00-04:00,145.35000610351562,145.35000610351562,145.35000610351562,145.35000610351562,1622,0.0,0.0
2024-07-12 15:22:00-04:00,145.30499267578125,145.30499267578125,145.30499267578125,145.30499267578125,113,0.0,0.0
2024-07-12 15:23:00-04:00,145.3249969482422,145.3249969482422,145.3249969482422,145.3249969482422,304,0.0,0.0
2024-07-12 15:24:00-04:00,145.3699951171875,145.41000366210938,145.3699951171875,145.38999938964844,3769,0.0,0.0
2024-07-12 15:27:00-04:00,145.3000030517578,145.3000030517578,145.3000030517578,145.3000030517578,154,0.0,0.0
2024-07-12 15:28:00-04:00,145.3000030517578,145.3000030517578,145.3000030517578,145.3000030517578,1106,0.0,0.0
2024-07-12 15:29:00-04:00,145.35000610351562,145.3800048828125,145.32000732421875,145.32000732421875,481,0.0,0.0
2024-07-12 15:30:00-04:00,145.3800048828125,145.39999389648438,145.3800048828125,145.39999389648438,245,0.0,0.0
2024-07-12 15:31:00-04:00,145.35499572753906,145.35499572753906,145.22999572753906,145.22999572753906,2072,0.0,0.0
2024-07-12 15:35:00-04:00,145.23500061035156,145.23500061035156,145.17999267578125,145.17999267578125,633,0.0,0.0
2024-07-12 15:36:00-04:00,145.25,145.25999450683594,145.22999572753906,145.25999450683594,1313,0.0,0.0
2024-07-12 15:37:00-04:00,145.24000549316406,145.24000549316406,145.1750030517578,145.1750030517578,879,0.0,0.0
2024-07-12 15:41:00-04:00,145.1300048828125,145.13999938964844,145.05999755859375,145.05999755859375,1894,0.0,0.0
2024-07-12 15:44:00-04:00,145.0,145.0,145.0,145.0,362,0.0,0.0
2024-07-12 15:45:00-04:00,145.0500030517578,145.11000061035156,145.0500030517578,145.0850067138672,2263,0.0,0.0
2024-07-12 15:46:00-04:00,145.1199951171875,145.17999267578125,145.1199951171875,145.17999267578125,840,0.0,0.0
2024-07-12 15:47:00-04:00,145.11000061035156,145.11000061035156,145.08999633789062,145.08999633789062,893,0.0,0.0
2024-07-12 15:48:00-04:00,145.07000732421875,145.07000732421875,145.0500030517578,145.0500030517578,949,0.0,0.0
2024-07-12 15:49:00-04:00,145.02999877929688,145.06500244140625,145.02999877929688,145.06500244140625,988,0.0,0.0
2024-07-12 15:50:00-04:00,145.02000427246094,145.02000427246094,144.9600067138672,144.9600067138672,1088,0.0,0.0
2024-07-12 15:51:00-04:00,144.9499969482422,145.06500244140625,144.8800048828125,145.06500244140625,3863,0.0,0.0
2024-07-12 15:52:00-04:00,145.0399932861328,145.0399932861328,145.02999877929688,145.02999877929688,1650,0.0,0.0
2024-07-12 15:53:00-04:00,145.00999450683594,145.00999450683594,145.00999450683594,145.00999450683594,309,0.0,0.0
2024-07-12 15:54:00-04:00,144.99000549316406,145.05999755859375,144.99000549316406,145.0,3736,0.0,0.0
2024-07-12 15:55:00-04:00,144.92999267578125,144.92999267578125,144.82000732421875,144.89999389648438,3575,0.0,0.0
2024-07-12 15:56:00-04:00,144.86000061035156,144.8699951171875,144.82000732421875,144.8300018310547,3081,0.0,0.0
2024-07-12 15:57:00-04:00,144.8300018310547,144.8800048828125,144.80999755859375,144.8800048828125,2488,0.0,0.0
2024-07-12 15:58:00-04:00,144.86000061035156,144.86000061035156,144.72000122070312,144.72000122070312,6201,0.0,0.0
2024-07-12 15:59:00-04:00,144.69000244140625,144.7100067138672,144.57000732421875,144.61000061035156,15844,0.0,0.0
