Datetime,Open,High,Low,Close,Volume,Dividends,Stock Splits
2024-07-01 09:30:00-04:00,141.3800048828125,141.3800048828125,141.3800048828125,141.3800048828125,0,0.0,0.0
2024-07-01 09:32:00-04:00,141.03500366210938,141.3699951171875,141.03500366210938,141.3699951171875,855,0.0,0.0
2024-07-01 09:33:00-04:00,141.47999572753906,141.47999572753906,141.47999572753906,141.47999572753906,439,0.0,0.0
2024-07-01 09:36:00-04:00,140.91000366210938,141.1199951171875,140.91000366210938,141.1199951171875,750,0.0,0.0
2024-07-01 09:37:00-04:00,140.96499633789062,140.96499633789062,140.86000061035156,140.86000061035156,999,0.0,0.0
2024-07-01 09:39:00-04:00,140.72500610351562,140.72500610351562,140.5500030517578,140.5500030517578,727,0.0,0.0
2024-07-01 09:42:00-04:00,140.88999938964844,140.88999938964844,140.88999938964844,140.88999938964844,209,0.0,0.0
2024-07-01 09:46:00-04:00,140.5500030517578,140.5500030517578,140.49000549316406,140.49000549316406,522,0.0,0.0
2024-07-01 09:47:00-04:00,140.36000061035156,140.4199981689453,140.13999938964844,140.13999938964844,2021,0.0,0.0
2024-07-01 09:52:00-04:00,140.69000244140625,141.125,140.5399932861328,141.125,1565,0.0,0.0
2024-07-01 10:01:00-04:00,140.4499969482422,140.5,140.4499969482422,140.49000549316406,531,0.0,0.0
2024-07-01 10:02:00-04:00,140.49000549316406,140.57400512695312,140.44000244140625,140.57400512695312,1423,0.0,0.0
2024-07-01 10:04:00-04:00,140.4199981689453,140.4199981689453,140.3800048828125,140.3800048828125,769,0.0,0.0
2024-07-01 10:05:00-04:00,140.25999450683594,140.36500549316406,140.25999450683594,140.36500549316406,259,0.0,0.0
2024-07-01 10:06:00-04:00,140.22000122070312,140.24000549316406,140.22000122070312,140.24000549316406,647,0.0,0.0
2024-07-01 10:07:00-04:00,140.22000122070312,140.22000122070312,140.22000122070312,140.22000122070312,516,0.0,0.0
2024-07-01 10:11:00-04:00,140.0,140.07000732421875,139.88999938964844,140.0,2595,0.0,0.0
2024-07-01 10:12:00-04:00,139.89999389648438,139.89999389648438,139.89999389648438,139.89999389648438,433,0.0,0.0
2024-07-01 10:15:00-04:00,139.83999633789062,139.9499969482422,139.83999633789062,139.9499969482422,1331,0.0,0.0
2024-07-01 10:20:00-04:00,139.85000610351562,139.85000610351562,139.60000610351562,139.61000061035156,1671,0.0,0.0
2024-07-01 10:21:00-04:00,139.74000549316406,139.74000549316406,139.60499572753906,139.60499572753906,626,0.0,0.0
2024-07-01 10:22:00-04:00,139.47999572753906,139.5,139.47999572753906,139.5,848,0.0,0.0
2024-07-01 10:23:00-04:00,139.5800018310547,139.5800018310547,139.4149932861328,139.49000549316406,1315,0.0,0.0
2024-07-01 10:25:00-04:00,139.6649932861328,139.6649932861328,139.6649932861328,139.6649932861328,267,0.0,0.0
2024-07-01 10:28:00-04:00,139.52999877929688,139.5399932861328,139.52999877929688,139.52999877929688,728,0.0,0.0
2024-07-01 10:29:00-04:00,139.75999450683594,139.75999450683594,139.75999450683594,139.75999450683594,283,0.0,0.0
2024-07-01 10:31:00-04:00,139.52000427246094,139.52000427246094,139.52000427246094,139.52000427246094,391,0.0,0.0
2024-07-01 10:32:00-04:00,139.4600067138672,139.4600067138672,139.4600067138672,139.4600067138672,261,0.0,0.0
2024-07-01 10:33:00-04:00,139.47000122070312,139.47000122070312,139.47000122070312,139.47000122070312,541,0.0,0.0
2024-07-01 10:34:00-04:00,139.38999938964844,139.38999938964844,139.38999938964844,139.38999938964844,262,0.0,0.0
2024-07-01 10:35:00-04:00,139.39500427246094,139.39500427246094,139.39500427246094,139.39500427246094,186,0.0,0.0
2024-07-01 10:37:00-04:00,139.3300018310547,139.33999633789062,139.3300018310547,139.33999633789062,437,0.0,0.0
2024-07-01 10:38:00-04:00,139.30999755859375,139.30999755859375,139.30999755859375,139.30999755859375,343,0.0,0.0
2024-07-01 10:39:00-04:00,139.32000732421875,139.32000732421875,139.3000030517578,139.3000030517578,905,0.0,0.0
2024-07-01 10:40:00-04:00,139.1999969482422,139.3300018310547,139.1999969482422,139.3300018310547,1047,0.0,0.0
2024-07-01 10:41:00-04:00,139.29100036621094,139.3300018310547,139.29100036621094,139.3300018310547,333,0.0,0.0
2024-07-01 10:42:00-04:00,139.26499938964844,139.26499938964844,139.26499938964844,139.26499938964844,146,0.0,0.0
2024-07-01 10:43:00-04:00,139.27000427246094,139.27000427246094,139.27000427246094,139.27000427246094,529,0.0,0.0
2024-07-01 10:45:00-04:00,139.13999938964844,139.13999938964844,139.13999938964844,139.13999938964844,204,0.0,0.0
2024-07-01 10:46:00-04:00,139.13999938964844,139.13999938964844,139.1300048828125,139.1300048828125,573,0.0,0.0
2024-07-01 10:47:00-04:00,139.08999633789062,139.17999267578125,139.0800018310547,139.0800018310547,800,0.0,0.0
2024-07-01 10:50:00-04:00,138.91000366210938,138.91000366210938,138.8800048828125,138.8800048828125,418,0.0,0.0
2024-07-01 10:51:00-04:00,139.07000732421875,139.1300048828125,139.07000732421875,139.1199951171875,730,0.0,0.0
2024-07-01 10:52:00-04:00,139.00999450683594,139.00999450683594,139.00999450683594,139.00999450683594,322,0.0,0.0
2024-07-01 10:55:00-04:00,138.97999572753906,139.0,138.97999572753906,139.0,813,0.0,0.0
2024-07-01 10:56:00-04:00,138.88999938964844,138.96499633789062,138.88999938964844,138.96499633789062,615,0.0,0.0
2024-07-01 10:57:00-04:00,139.0399932861328,139.0399932861328,139.0050048828125,139.01499938964844,369,0.0,0.0
2024-07-01 10:58:00-04:00,139.0050048828125,139.0050048828125,139.0050048828125,139.0050048828125,476,0.0,0.0
2024-07-01 11:01:00-04:00,138.88999938964844,138.88999938964844,138.8300018310547,138.8300018310547,648,0.0,0.0
2024-07-01 11:02:00-04:00,138.80999755859375,138.92999267578125,138.80999755859375,138.92999267578125,1909,0.0,0.0
2024-07-01 11:05:00-04:00,138.9499969482422,138.9499969482422,138.9499969482422,138.9499969482422,295,0.0,0.0
2024-07-01 11:06:00-04:00,138.94000244140625,139.00999450683594,138.94000244140625,139.00999450683594,700,0.0,0.0
2024-07-01 11:08:00-04:00,139.15499877929688,139.16000366210938,139.15499877929688,139.16000366210938,375,0.0,0.0
2024-07-01 11:09:00-04:00,139.125,139.125,139.0500030517578,139.0500030517578,383,0.0,0.0
2024-07-01 11:11:00-04:00,139.02999877929688,139.0399932861328,139.02000427246094,139.0399932861328,971,0.0,0.0
2024-07-01 11:13:00-04:00,139.08999633789062,139.08999633789062,139.08999633789062,139.08999633789062,101,0.0,0.0
2024-07-01 11:14:00-04:00,139.00999450683594,139.00999450683594,138.9199981689453,138.9199981689453,932,0.0,0.0
2024-07-01 11:15:00-04:00,138.9199981689453,138.9199981689453,138.89999389648438,138.89999389648438,718,0.0,0.0
2024-07-01 11:18:00-04:00,138.85000610351562,138.86000061035156,138.85000610351562,138.86000061035156,381,0.0,0.0
2024-07-01 11:20:00-04:00,138.86000061035156,138.86000061035156,138.83999633789062,138.83999633789062,849,0.0,0.0
2024-07-01 11:22:00-04:00,138.88999938964844,138.88999938964844,138.83999633789062,138.83999633789062,315,0.0,0.0
2024-07-01 11:24:00-04:00,138.77999877929688,138.80999755859375,138.77999877929688,138.80999755859375,415,0.0,0.0
2024-07-01 11:26:00-04:00,138.89999389648438,138.89999389648438,138.80999755859375,138.80999755859375,803,0.0,0.0
2024-07-01 11:28:00-04:00,138.74000549316406,138.8800048828125,138.74000549316406,138.8800048828125,1053,0.0,0.0
2024-07-01 11:30:00-04:00,138.8800048828125,138.8800048828125,138.8800048828125,138.8800048828125,452,0.0,0.0
2024-07-01 11:31:00-04:00,139.0,139.0,139.0,139.0,361,0.0,0.0
2024-07-01 11:33:00-04:00,138.89999389648438,138.89999389648438,138.89999389648438,138.89999389648438,421,0.0,0.0
2024-07-01 11:34:00-04:00,138.88999938964844,138.97000122070312,138.88999938964844,138.97000122070312,793,0.0,0.0
2024-07-01 11:37:00-04:00,138.8699951171875,138.8800048828125,138.82000732421875,138.82000732421875,1502,0.0,0.0
2024-07-01 11:45:00-04:00,138.7100067138672,138.7100067138672,138.7100067138672,138.7100067138672,329,0.0,0.0
2024-07-01 11:48:00-04:00,138.64999389648438,138.64999389648438,138.63999938964844,138.63999938964844,642,0.0,0.0
2024-07-01 11:56:00-04:00,138.6300048828125,138.6300048828125,138.6300048828125,138.6300048828125,193,0.0,0.0
2024-07-01 11:59:00-04:00,138.64999389648438,138.64999389648438,138.63999938964844,138.63999938964844,776,0.0,0.0
2024-07-01 12:02:00-04:00,138.6300048828125,138.6300048828125,138.6300048828125,138.6300048828125,1081,0.0,0.0
2024-07-01 12:09:00-04:00,138.55999755859375,138.72000122070312,138.55999755859375,138.625,4096,0.0,0.0
2024-07-01 12:10:00-04:00,138.61000061035156,138.61000061035156,138.61000061035156,138.61000061035156,1323,0.0,0.0
2024-07-01 12:27:00-04:00,138.55999755859375,138.55999755859375,138.55999755859375,138.55999755859375,288,0.0,0.0
2024-07-01 12:31:00-04:00,138.61000061035156,138.61000061035156,138.61000061035156,138.61000061035156,346,0.0,0.0
2024-07-01 12:33:00-04:00,138.66000366210938,138.66000366210938,138.4600067138672,138.4600067138672,2816,0.0,0.0
2024-07-01 12:41:00-04:00,138.61000061035156,138.69000244140625,138.5399932861328,138.69000244140625,1970,0.0,0.0
2024-07-01 12:45:00-04:00,138.5500030517578,138.5500030517578,138.5500030517578,138.5500030517578,186,0.0,0.0
2024-07-01 12:46:00-04:00,138.625,138.625,138.55999755859375,138.55999755859375,415,0.0,0.0
2024-07-01 12:49:00-04:00,138.52999877929688,138.52999877929688,138.52999877929688,138.52999877929688,309,0.0,0.0
2024-07-01 12:50:00-04:00,138.52999877929688,138.52999877929688,138.52499389648438,138.52499389648438,1501,0.0,0.0
2024-07-01 12:53:00-04:00,138.47999572753906,138.47999572753906,138.47999572753906,138.47999572753906,698,0.0,0.0
2024-07-01 12:54:00-04:00,138.47000122070312,138.52999877929688,138.44000244140625,138.44000244140625,727,0.0,0.0
2024-07-01 12:57:00-04:00,138.44000244140625,138.44000244140625,138.44000244140625,138.44000244140625,379,0.0,0.0
2024-07-01 12:59:00-04:00,138.49000549316406,138.49000549316406,138.4600067138672,138.4600067138672,943,0.0,0.0
2024-07-01 13:00:00-04:00,138.47000122070312,138.47000122070312,138.41000366210938,138.41000366210938,638,0.0,0.0
2024-07-01 13:03:00-04:00,138.47500610351562,138.47500610351562,138.47500610351562,138.47500610351562,200,0.0,0.0
2024-07-01 13:05:00-04:00,138.47999572753906,138.47999572753906,138.44000244140625,138.4600067138672,575,0.0,0.0
2024-07-01 13:06:00-04:00,138.49000549316406,138.49000549316406,138.49000549316406,138.49000549316406,493,0.0,0.0
2024-07-01 13:09:00-04:00,138.49000549316406,138.49000549316406,138.49000549316406,138.49000549316406,249,0.0,0.0
2024-07-01 13:11:00-04:00,138.49000549316406,138.49000549316406,138.49000549316406,138.49000549316406,101,0.0,0.0
2024-07-01 13:12:00-04:00,138.49000549316406,138.77000427246094,138.49000549316406,138.74000549316406,10518,0.0,0.0
2024-07-01 13:13:00-04:00,138.75,138.77499389648438,138.75,138.77499389648438,434,0.0,0.0
2024-07-01 13:14:00-04:00,138.72000122070312,138.77999877929688,138.72000122070312,138.77999877929688,5291,0.0,0.0
2024-07-01 13:15:00-04:00,138.72000122070312,138.7949981689453,138.7100067138672,138.7949981689453,521,0.0,0.0
2024-07-01 13:16:00-04:00,138.8300018310547,138.85000610351562,138.8000030517578,138.8350067138672,1126,0.0,0.0
2024-07-01 13:18:00-04:00,138.9600067138672,138.9600067138672,138.9600067138672,138.9600067138672,388,0.0,0.0
2024-07-01 13:19:00-04:00,138.97000122070312,138.97000122070312,138.97000122070312,138.97000122070312,356,0.0,0.0
2024-07-01 13:20:00-04:00,139.00999450683594,139.00999450683594,139.00999450683594,139.00999450683594,435,0.0,0.0
2024-07-01 13:23:00-04:00,139.05999755859375,139.05999755859375,139.05999755859375,139.05999755859375,421,0.0,0.0
2024-07-01 13:25:00-04:00,139.07000732421875,139.07000732421875,139.00010681152344,139.00010681152344,396,0.0,0.0
2024-07-01 13:28:00-04:00,139.07000732421875,139.07000732421875,139.07000732421875,139.07000732421875,214,0.0,0.0
2024-07-01 13:30:00-04:00,139.0,139.0,139.0,139.0,643,0.0,0.0
2024-07-01 13:33:00-04:00,139.0,139.05499267578125,139.0,139.05499267578125,400,0.0,0.0
2024-07-01 13:34:00-04:00,138.97000122070312,139.00999450683594,138.97000122070312,139.00999450683594,663,0.0,0.0
2024-07-01 13:35:00-04:00,138.88999938964844,138.88999938964844,138.88999938964844,138.88999938964844,292,0.0,0.0
2024-07-01 13:37:00-04:00,138.88999938964844,138.88999938964844,138.88999938964844,138.88999938964844,229,0.0,0.0
2024-07-01 13:38:00-04:00,138.88999938964844,138.9149932861328,138.88999938964844,138.9149932861328,570,0.0,0.0
2024-07-01 13:39:00-04:00,138.83999633789062,138.8699951171875,138.8000030517578,138.8000030517578,3964,0.0,0.0
2024-07-01 13:40:00-04:00,138.85499572753906,138.85499572753906,138.6999969482422,138.7899932861328,1457,0.0,0.0
2024-07-01 13:41:00-04:00,138.7010040283203,138.7010040283203,138.7010040283203,138.7010040283203,160,0.0,0.0
2024-07-01 13:42:00-04:00,138.6999969482422,138.6999969482422,138.6999969482422,138.6999969482422,525,0.0,0.0
2024-07-01 13:44:00-04:00,138.69000244140625,138.69000244140625,138.69000244140625,138.69000244140625,330,0.0,0.0
2024-07-01 13:45:00-04:00,138.5500030517578,138.5500030517578,138.5500030517578,138.5500030517578,331,0.0,0.0
2024-07-01 13:48:00-04:00,138.64500427246094,138.64500427246094,138.64500427246094,138.64500427246094,340,0.0,0.0
2024-07-01 13:53:00-04:00,138.5399932861328,138.63499450683594,138.5399932861328,138.55499267578125,1015,0.0,0.0
2024-07-01 13:56:00-04:00,138.5399932861328,138.5399932861328,138.5399932861328,138.5399932861328,276,0.0,0.0
2024-07-01 13:58:00-04:00,138.5,138.5,138.5,138.5,677,0.0,0.0
2024-07-01 14:04:00-04:00,138.50999450683594,138.50999450683594,138.47999572753906,138.50999450683594,1603,0.0,0.0
2024-07-01 14:05:00-04:00,138.4949951171875,138.52999877929688,138.49000549316406,138.49000549316406,1473,0.0,0.0
2024-07-01 14:09:00-04:00,138.51499938964844,138.5500030517578,138.5,138.5,1075,0.0,0.0
2024-07-01 14:11:00-04:00,138.6300048828125,138.6699981689453,138.6300048828125,138.6699981689453,1382,0.0,0.0
2024-07-01 14:15:00-04:00,138.69000244140625,138.69000244140625,138.69000244140625,138.69000244140625,219,0.0,0.0
2024-07-01 14:18:00-04:00,138.66000366210938,138.66000366210938,138.66000366210938,138.66000366210938,123,0.0,0.0
2024-07-01 14:19:00-04:00,138.7050018310547,138.72000122070312,138.67999267578125,138.67999267578125,625,0.0,0.0
2024-07-01 14:20:00-04:00,138.6300048828125,138.6300048828125,138.6300048828125,138.6300048828125,542,0.0,0.0
2024-07-01 14:21:00-04:00,138.67999267578125,138.69000244140625,138.60499572753906,138.60499572753906,788,0.0,0.0
2024-07-01 14:23:00-04:00,138.614501953125,138.64999389648438,138.614501953125,138.64999389648438,246,0.0,0.0
2024-07-01 14:24:00-04:00,138.7100067138672,138.7100067138672,138.60499572753906,138.66250610351562,1375,0.0,0.0
2024-07-01 14:26:00-04:00,138.5800018310547,138.6300048828125,138.5800018310547,138.6300048828125,889,0.0,0.0
2024-07-01 14:27:00-04:00,138.6300048828125,138.6300048828125,138.6199951171875,138.6300048828125,969,0.0,0.0
2024-07-01 14:31:00-04:00,138.7100067138672,138.7100067138672,138.7100067138672,138.7100067138672,688,0.0,0.0
2024-07-01 14:34:00-04:00,138.67999267578125,138.7449951171875,138.67999267578125,138.7449951171875,1220,0.0,0.0
2024-07-01 14:37:00-04:00,138.75,138.7550048828125,138.75,138.7550048828125,218,0.0,0.0
2024-07-01 14:38:00-04:00,138.82000732421875,138.82000732421875,138.80999755859375,138.80999755859375,589,0.0,0.0
2024-07-01 14:39:00-04:00,138.77000427246094,138.8000030517578,138.72999572753906,138.72999572753906,3242,0.0,0.0
2024-07-01 14:40:00-04:00,138.77999877929688,138.77999877929688,138.77999877929688,138.77999877929688,477,0.0,0.0
2024-07-01 14:42:00-04:00,138.77999877929688,138.77999877929688,138.75999450683594,138.75999450683594,1024,0.0,0.0
2024-07-01 14:43:00-04:00,138.72000122070312,138.72000122070312,138.6699981689453,138.6699981689453,1032,0.0,0.0
2024-07-01 14:44:00-04:00,138.69500732421875,138.75,138.69500732421875,138.75,479,0.0,0.0
2024-07-01 14:48:00-04:00,138.6199951171875,138.69500732421875,138.6199951171875,138.69500732421875,820,0.0,0.0
2024-07-01 14:50:00-04:00,138.69000244140625,138.6999969482422,138.66000366210938,138.66000366210938,942,0.0,0.0
2024-07-01 14:52:00-04:00,138.6699981689453,138.6699981689453,138.63999938964844,138.63999938964844,1693,0.0,0.0
2024-07-01 14:53:00-04:00,138.52000427246094,138.52000427246094,138.52000427246094,138.52000427246094,621,0.0,0.0
2024-07-01 14:56:00-04:00,138.58999633789062,138.58999633789062,138.5,138.52999877929688,3373,0.0,0.0
2024-07-01 15:00:00-04:00,138.4600067138672,138.4600067138672,138.4600067138672,138.4600067138672,421,0.0,0.0
2024-07-01 15:01:00-04:00,138.41000366210938,138.41000366210938,138.39999389648438,138.39999389648438,315,0.0,0.0
2024-07-01 15:02:00-04:00,138.38999938964844,138.47999572753906,138.38999938964844,138.47999572753906,2316,0.0,0.0
2024-07-01 15:06:00-04:00,138.5,138.5,138.47999572753906,138.47999572753906,754,0.0,0.0
2024-07-01 15:07:00-04:00,138.47999572753906,138.52000427246094,138.47999572753906,138.52000427246094,1222,0.0,0.0
2024-07-01 15:10:00-04:00,138.5,138.5,138.5,138.5,860,0.0,0.0
2024-07-01 15:11:00-04:00,138.69000244140625,138.6999969482422,138.69000244140625,138.6999969482422,1082,0.0,0.0
2024-07-01 15:14:00-04:00,138.66000366210938,138.66000366210938,138.55999755859375,138.55999755859375,731,0.0,0.0
2024-07-01 15:16:00-04:00,138.5,138.5500030517578,138.5,138.5500030517578,1555,0.0,0.0
2024-07-01 15:18:00-04:00,138.58999633789062,138.6199951171875,138.58999633789062,138.6199951171875,515,0.0,0.0
2024-07-01 15:20:00-04:00,138.6999969482422,138.7100067138672,138.6999969482422,138.7100067138672,521,0.0,0.0
2024-07-01 15:21:00-04:00,138.68499755859375,138.72000122070312,138.68499755859375,138.72000122070312,644,0.0,0.0
2024-07-01 15:22:00-04:00,138.7949981689453,138.7949981689453,138.6999969482422,138.6999969482422,1463,0.0,0.0
2024-07-01 15:23:00-04:00,138.75999450683594,138.75999450683594,138.75999450683594,138.75999450683594,177,0.0,0.0
2024-07-01 15:24:00-04:00,138.72000122070312,138.72000122070312,138.72000122070312,138.72000122070312,195,0.0,0.0
2024-07-01 15:25:00-04:00,138.67999267578125,138.67999267578125,138.67999267578125,138.67999267578125,356,0.0,0.0
2024-07-01 15:27:00-04:00,138.64999389648438,138.64999389648438,138.6199951171875,138.6199951171875,1163,0.0,0.0
2024-07-01 15:29:00-04:00,138.66000366210938,138.66000366210938,138.66000366210938,138.66000366210938,446,0.0,0.0
2024-07-01 15:30:00-04:00,138.6699981689453,138.6699981689453,138.66000366210938,138.66000366210938,660,0.0,0.0
2024-07-01 15:31:00-04:00,138.69000244140625,138.72000122070312,138.69000244140625,138.72000122070312,743,0.0,0.0
2024-07-01 15:33:00-04:00,138.75,138.77000427246094,138.75,138.76499938964844,841,0.0,0.0
2024-07-01 15:34:00-04:00,138.76499938964844,138.8350067138672,138.76499938964844,138.8350067138672,735,0.0,0.0
2024-07-01 15:35:00-04:00,138.8249969482422,138.85000610351562,138.8249969482422,138.85000610351562,1016,0.0,0.0
2024-07-01 15:36:00-04:00,138.875,138.875,138.83999633789062,138.83999633789062,1636,0.0,0.0
2024-07-01 15:37:00-04:00,138.8000030517578,138.8000030517578,138.77999877929688,138.77999877929688,402,0.0,0.0
2024-07-01 15:38:00-04:00,138.80999755859375,138.80999755859375,138.74000549316406,138.74000549316406,977,0.0,0.0
2024-07-01 15:39:00-04:00,138.74000549316406,138.8000030517578,138.74000549316406,138.8000030517578,1233,0.0,0.0
2024-07-01 15:40:00-04:00,138.85000610351562,138.9499969482422,138.85000610351562,138.9499969482422,412,0.0,0.0
2024-07-01 15:41:00-04:00,138.85000610351562,138.89999389648438,138.85000610351562,138.89999389648438,733,0.0,0.0
2024-07-01 15:42:00-04:00,138.875,138.875,138.875,138.875,360,0.0,0.0
2024-07-01 15:43:00-04:00,138.84500122070312,138.90499877929688,138.84500122070312,138.90499877929688,1109,0.0,0.0
2024-07-01 15:44:00-04:00,138.8300018310547,138.8300018310547,138.7949981689453,138.7949981689453,1716,0.0,0.0
2024-07-01 15:45:00-04:00,138.8000030517578,138.8300018310547,138.8000030517578,138.8300018310547,721,0.0,0.0
2024-07-01 15:46:00-04:00,138.82000732421875,138.83999633789062,138.8000030517578,138.83999633789062,764,0.0,0.0
2024-07-01 15:48:00-04:00,138.82000732421875,138.85000610351562,138.69000244140625,138.6999969482422,2587,0.0,0.0
2024-07-01 15:49:00-04:00,138.6999969482422,138.75999450683594,138.69000244140625,138.7550048828125,2121,0.0,0.0
2024-07-01 15:50:00-04:00,138.69000244140625,138.77999877929688,138.67999267578125,138.7449951171875,1529,0.0,0.0
2024-07-01 15:51:00-04:00,138.7899932861328,138.7899932861328,138.74000549316406,138.74000549316406,1523,0.0,0.0
2024-07-01 15:52:00-04:00,138.69000244140625,138.69000244140625,138.66000366210938,138.66000366210938,1683,0.0,0.0
2024-07-01 15:53:00-04:00,138.5800018310547,138.6300048828125,138.5800018310547,138.59500122070312,3393,0.0,0.0
2024-07-01 15:54:00-04:00,138.6300048828125,138.6300048828125,138.58999633789062,138.60000610351562,1359,0.0,0.0
2024-07-01 15:55:00-04:00,138.61000061035156,138.66000366210938,138.38999938964844,138.42999267578125,8703,0.0,0.0
2024-07-01 15:56:00-04:00,138.50999450683594,138.58999633789062,138.47000122070312,138.58999633789062,6118,0.0,0.0
2024-07-01 15:57:00-04:00,138.61500549316406,138.72500610351562,138.61500549316406,138.67999267578125,5863,0.0,0.0
2024-07-01 15:58:00-04:00,138.64999389648438,138.7100067138672,138.64999389648438,138.69000244140625,4313,0.0,0.0
2024-07-01 15:59:00-04:00,138.6699981689453,138.72999572753906,138.4600067138672,138.5399932861328,21484,0.0,0.0
2024-07-02 09:30:00-04:00,138.47999572753906,138.47999572753906,138.47999572753906,138.47999572753906,1607,0.0,0.0
2024-07-02 09:40:00-04:00,138.32000732421875,138.32000732421875,138.32000732421875,138.32000732421875,345,0.0,0.0
2024-07-02 09:43:00-04:00,138.35000610351562,138.35000610351562,137.99000549316406,138.02000427246094,1137,0.0,0.0
2024-07-02 09:44:00-04:00,138.0749969482422,138.0749969482422,138.0749969482422,138.0749969482422,266,0.0,0.0
2024-07-02 09:57:00-04:00,138.00010681152344,138.00010681152344,138.00010681152344,138.00010681152344,756,0.0,0.0
2024-07-02 10:04:00-04:00,138.10000610351562,138.1699981689453,138.02999877929688,138.1699981689453,3334,0.0,0.0
2024-07-02 10:05:00-04:00,138.16000366210938,138.22000122070312,138.1199951171875,138.22000122070312,1758,0.0,0.0
2024-07-02 10:12:00-04:00,138.19000244140625,138.19000244140625,138.19000244140625,138.19000244140625,271,0.0,0.0
2024-07-02 10:13:00-04:00,138.0500030517578,138.0500030517578,138.0500030517578,138.0500030517578,533,0.0,0.0
2024-07-02 10:20:00-04:00,138.02000427246094,138.02000427246094,138.02000427246094,138.02000427246094,503,0.0,0.0
2024-07-02 10:28:00-04:00,138.0500030517578,138.05999755859375,138.0500030517578,138.0500030517578,1059,0.0,0.0
2024-07-02 10:32:00-04:00,138.13499450683594,138.16000366210938,138.13499450683594,138.16000366210938,1112,0.0,0.0
2024-07-02 10:34:00-04:00,138.16000366210938,138.16000366210938,138.16000366210938,138.16000366210938,903,0.0,0.0
2024-07-02 10:38:00-04:00,138.25,138.3300018310547,138.25,138.3300018310547,1490,0.0,0.0
2024-07-02 10:39:00-04:00,138.25999450683594,138.27999877929688,138.25999450683594,138.27999877929688,773,0.0,0.0
2024-07-02 10:41:00-04:00,138.02999877929688,138.02999877929688,138.02999877929688,138.02999877929688,218,0.0,0.0
2024-07-02 10:44:00-04:00,138.0500030517578,138.1300048828125,137.9199981689453,137.9199981689453,1464,0.0,0.0
2024-07-02 10:51:00-04:00,138.09930419921875,138.09930419921875,138.09930419921875,138.09930419921875,1216,0.0,0.0
2024-07-02 11:00:00-04:00,137.76499938964844,137.77000427246094,137.76499938964844,137.77000427246094,264,0.0,0.0
2024-07-02 11:03:00-04:00,137.8800048828125,137.8800048828125,137.75999450683594,137.75999450683594,679,0.0,0.0
2024-07-02 11:11:00-04:00,137.86000061035156,137.86000061035156,137.75999450683594,137.85000610351562,1151,0.0,0.0
2024-07-02 11:15:00-04:00,137.80499267578125,137.80499267578125,137.80499267578125,137.80499267578125,189,0.0,0.0
2024-07-02 11:17:00-04:00,137.80999755859375,138.0449981689453,137.80999755859375,138.0449981689453,951,0.0,0.0
2024-07-02 11:18:00-04:00,138.12750244140625,138.12750244140625,138.12750244140625,138.12750244140625,474,0.0,0.0
2024-07-02 11:22:00-04:00,138.22000122070312,138.22000122070312,138.22000122070312,138.22000122070312,407,0.0,0.0
2024-07-02 11:29:00-04:00,138.1761016845703,138.1761016845703,138.1761016845703,138.1761016845703,278,0.0,0.0
2024-07-02 11:31:00-04:00,138.22500610351562,138.22500610351562,138.22500610351562,138.22500610351562,977,0.0,0.0
2024-07-02 11:37:00-04:00,138.10000610351562,138.13999938964844,138.08999633789062,138.08999633789062,1317,0.0,0.0
2024-07-02 11:42:00-04:00,138.1199951171875,138.1199951171875,138.1199951171875,138.1199951171875,163,0.0,0.0
2024-07-02 11:43:00-04:00,138.13499450683594,138.13499450683594,138.13499450683594,138.13499450683594,665,0.0,0.0
2024-07-02 11:59:00-04:00,138.05999755859375,138.09500122070312,137.97000122070312,137.97000122070312,1168,0.0,0.0
2024-07-02 12:00:00-04:00,138.0500030517578,138.0500030517578,138.0500030517578,138.0500030517578,253,0.0,0.0
2024-07-02 12:01:00-04:00,138.02000427246094,138.0399932861328,137.92999267578125,137.9600067138672,977,0.0,0.0
2024-07-02 12:02:00-04:00,137.99000549316406,137.99000549316406,137.99000549316406,137.99000549316406,461,0.0,0.0
2024-07-02 12:06:00-04:00,137.89999389648438,137.89999389648438,137.89999389648438,137.89999389648438,169,0.0,0.0
2024-07-02 12:08:00-04:00,138.0050048828125,138.0050048828125,138.0050048828125,138.0050048828125,599,0.0,0.0
2024-07-02 12:15:00-04:00,137.97000122070312,137.97000122070312,137.97000122070312,137.97000122070312,181,0.0,0.0
2024-07-02 12:17:00-04:00,138.07000732421875,138.07000732421875,138.07000732421875,138.07000732421875,627,0.0,0.0
2024-07-02 12:23:00-04:00,137.99000549316406,138.13999938964844,137.99000549316406,138.13999938964844,848,0.0,0.0
2024-07-02 12:25:00-04:00,138.13999938964844,138.2100067138672,138.1300048828125,138.2100067138672,1315,0.0,0.0
2024-07-02 12:27:00-04:00,138.2100067138672,138.2100067138672,138.1199951171875,138.14999389648438,3232,0.0,0.0
2024-07-02 12:40:00-04:00,138.44000244140625,138.44000244140625,138.44000244140625,138.44000244140625,157,0.0,0.0
2024-07-02 12:41:00-04:00,138.3800048828125,138.38999938964844,138.3800048828125,138.38999938964844,1205,0.0,0.0
2024-07-02 12:42:00-04:00,138.38499450683594,138.38499450683594,138.38499450683594,138.38499450683594,517,0.0,0.0
2024-07-02 12:46:00-04:00,138.47999572753906,138.61000061035156,138.47000122070312,138.47500610351562,1608,0.0,0.0
2024-07-02 12:50:00-04:00,138.47999572753906,138.47999572753906,138.47999572753906,138.47999572753906,690,0.0,0.0
2024-07-02 12:51:00-04:00,138.4600067138672,138.47999572753906,138.4600067138672,138.47999572753906,366,0.0,0.0
2024-07-02 12:53:00-04:00,138.48500061035156,138.48500061035156,138.48500061035156,138.48500061035156,307,0.0,0.0
2024-07-02 12:57:00-04:00,138.4199981689453,138.6999969482422,138.41000366210938,138.64999389648438,4917,0.0,0.0
2024-07-02 12:59:00-04:00,138.5500030517578,138.5500030517578,138.5500030517578,138.5500030517578,453,0.0,0.0
2024-07-02 13:01:00-04:00,138.5709991455078,138.5709991455078,138.5709991455078,138.5709991455078,268,0.0,0.0
2024-07-02 13:05:00-04:00,138.67999267578125,138.67999267578125,138.67999267578125,138.67999267578125,828,0.0,0.0
2024-07-02 13:14:00-04:00,138.7100067138672,138.7100067138672,138.7100067138672,138.7100067138672,718,0.0,0.0
2024-07-02 13:17:00-04:00,138.72999572753906,138.83999633789062,138.72999572753906,138.80999755859375,2865,0.0,0.0
2024-07-02 13:22:00-04:00,138.86500549316406,138.86500549316406,138.86500549316406,138.86500549316406,190,0.0,0.0
2024-07-02 13:23:00-04:00,138.8699951171875,138.8699951171875,138.8699951171875,138.8699951171875,1097,0.0,0.0
2024-07-02 13:26:00-04:00,138.91000366210938,138.91000366210938,138.91000366210938,138.91000366210938,495,0.0,0.0
2024-07-02 13:27:00-04:00,138.9199981689453,138.9199981689453,138.9199981689453,138.9199981689453,856,0.0,0.0
2024-07-02 13:34:00-04:00,138.9600067138672,138.9600067138672,138.9600067138672,138.9600067138672,325,0.0,0.0
2024-07-02 13:36:00-04:00,138.97000122070312,138.97000122070312,138.97000122070312,138.97000122070312,368,0.0,0.0
2024-07-02 13:37:00-04:00,138.91000366210938,138.91000366210938,138.91000366210938,138.91000366210938,147,0.0,0.0
2024-07-02 13:39:00-04:00,138.90499877929688,139.0399932861328,138.86000061035156,138.97999572753906,7105,0.0,0.0
2024-07-02 13:40:00-04:00,138.98500061035156,138.98500061035156,138.98500061035156,138.98500061035156,160,0.0,0.0
2024-07-02 13:42:00-04:00,139.07000732421875,139.07000732421875,139.07000732421875,139.07000732421875,261,0.0,0.0
2024-07-02 13:45:00-04:00,139.07000732421875,139.07000732421875,138.9949951171875,138.9949951171875,693,0.0,0.0
2024-07-02 13:46:00-04:00,138.97999572753906,139.0449981689453,138.9550018310547,139.0449981689453,2409,0.0,0.0
2024-07-02 13:47:00-04:00,139.0500030517578,139.0500030517578,139.0500030517578,139.0500030517578,700,0.0,0.0
2024-07-02 13:48:00-04:00,139.0500030517578,139.0500030517578,139.0500030517578,139.0500030517578,634,0.0,0.0
2024-07-02 13:53:00-04:00,139.11000061035156,139.1300048828125,139.11000061035156,139.11500549316406,943,0.0,0.0
2024-07-02 13:54:00-04:00,139.22999572753906,139.22999572753906,139.22999572753906,139.22999572753906,145,0.0,0.0
2024-07-02 13:55:00-04:00,139.0500030517578,139.0500030517578,139.0500030517578,139.0500030517578,252,0.0,0.0
2024-07-02 13:57:00-04:00,139.1300048828125,139.2100067138672,139.1300048828125,139.2100067138672,1204,0.0,0.0
2024-07-02 13:58:00-04:00,139.2100067138672,139.2899932861328,139.13999938964844,139.24749755859375,4550,0.0,0.0
2024-07-02 13:59:00-04:00,139.14500427246094,139.14500427246094,139.1300048828125,139.1300048828125,704,0.0,0.0
2024-07-02 14:00:00-04:00,139.125,139.125,139.125,139.125,259,0.0,0.0
2024-07-02 14:03:00-04:00,139.22999572753906,139.25999450683594,139.22999572753906,139.25999450683594,383,0.0,0.0
2024-07-02 14:05:00-04:00,139.05999755859375,139.05999755859375,139.05999755859375,139.05999755859375,619,0.0,0.0
2024-07-02 14:09:00-04:00,139.19000244140625,139.19000244140625,139.19000244140625,139.19000244140625,549,0.0,0.0
2024-07-02 14:11:00-04:00,139.0447998046875,139.0447998046875,139.0447998046875,139.0447998046875,292,0.0,0.0
2024-07-02 14:13:00-04:00,139.2050018310547,139.2050018310547,139.2050018310547,139.2050018310547,871,0.0,0.0
2024-07-02 14:15:00-04:00,139.3249969482422,139.3249969482422,139.3249969482422,139.3249969482422,159,0.0,0.0
2024-07-02 14:16:00-04:00,139.3300018310547,139.3300018310547,139.3300018310547,139.3300018310547,255,0.0,0.0
2024-07-02 14:17:00-04:00,139.25,139.25,139.25,139.25,235,0.0,0.0
2024-07-02 14:18:00-04:00,139.3300018310547,139.3300018310547,139.3300018310547,139.3300018310547,429,0.0,0.0
2024-07-02 14:20:00-04:00,139.3300018310547,139.3300018310547,139.3300018310547,139.3300018310547,343,0.0,0.0
2024-07-02 14:23:00-04:00,139.42990112304688,139.42990112304688,139.42990112304688,139.42990112304688,153,0.0,0.0
2024-07-02 14:24:00-04:00,139.32000732421875,139.36000061035156,139.32000732421875,139.36000061035156,307,0.0,0.0
2024-07-02 14:25:00-04:00,139.25,139.27999877929688,139.0399932861328,139.0399932861328,1985,0.0,0.0
2024-07-02 14:26:00-04:00,139.13999938964844,139.13999938964844,139.13999938964844,139.13999938964844,773,0.0,0.0
2024-07-02 14:29:00-04:00,139.11000061035156,139.18499755859375,139.11000061035156,139.18499755859375,228,0.0,0.0
2024-07-02 14:30:00-04:00,139.18499755859375,139.18499755859375,139.18499755859375,139.18499755859375,311,0.0,0.0
2024-07-02 14:35:00-04:00,139.26499938964844,139.26499938964844,139.26499938964844,139.26499938964844,409,0.0,0.0
2024-07-02 14:38:00-04:00,139.27999877929688,139.27999877929688,139.27999877929688,139.27999877929688,243,0.0,0.0
2024-07-02 14:39:00-04:00,139.25,139.25,139.19000244140625,139.19000244140625,409,0.0,0.0
2024-07-02 14:41:00-04:00,139.1750030517578,139.1750030517578,139.1750030517578,139.1750030517578,299,0.0,0.0
2024-07-02 14:43:00-04:00,139.21499633789062,139.21499633789062,139.21499633789062,139.21499633789062,281,0.0,0.0
2024-07-02 14:45:00-04:00,139.27000427246094,139.27000427246094,139.27000427246094,139.27000427246094,595,0.0,0.0
2024-07-02 14:50:00-04:00,139.25999450683594,139.25999450683594,139.25999450683594,139.25999450683594,377,0.0,0.0
2024-07-02 14:55:00-04:00,139.24000549316406,139.24000549316406,139.17999267578125,139.19000244140625,4092,0.0,0.0
2024-07-02 15:14:00-04:00,139.1999969482422,139.22999572753906,139.1699981689453,139.1699981689453,1416,0.0,0.0
2024-07-02 15:15:00-04:00,139.25999450683594,139.25999450683594,139.1999969482422,139.1999969482422,553,0.0,0.0
2024-07-02 15:18:00-04:00,139.1999969482422,139.1999969482422,139.1999969482422,139.1999969482422,247,0.0,0.0
2024-07-02 15:19:00-04:00,139.2100067138672,139.2100067138672,139.2100067138672,139.2100067138672,200,0.0,0.0
2024-07-02 15:21:00-04:00,139.30999755859375,139.30999755859375,139.24000549316406,139.27499389648438,1415,0.0,0.0
2024-07-02 15:24:00-04:00,139.2675018310547,139.2675018310547,139.2675018310547,139.2675018310547,352,0.0,0.0
2024-07-02 15:25:00-04:00,139.2949981689453,139.3300018310547,139.2949981689453,139.3300018310547,1442,0.0,0.0
2024-07-02 15:26:00-04:00,139.38999938964844,139.38999938964844,139.3800048828125,139.3800048828125,485,0.0,0.0
2024-07-02 15:27:00-04:00,139.3800048828125,139.3800048828125,139.3800048828125,139.3800048828125,204,0.0,0.0
2024-07-02 15:28:00-04:00,139.375,139.375,139.375,139.375,692,0.0,0.0
2024-07-02 15:30:00-04:00,139.36000061035156,139.3874969482422,139.35000610351562,139.35000610351562,1787,0.0,0.0
2024-07-02 15:32:00-04:00,139.38999938964844,139.44500732421875,139.3699951171875,139.44500732421875,2748,0.0,0.0
2024-07-02 15:33:00-04:00,139.4149932861328,139.4149932861328,139.4149932861328,139.4149932861328,226,0.0,0.0
2024-07-02 15:34:00-04:00,139.41000366210938,139.41000366210938,139.41000366210938,139.41000366210938,101,0.0,0.0
2024-07-02 15:35:00-04:00,139.41000366210938,139.51499938964844,139.38999938964844,139.5,6036,0.0,0.0
2024-07-02 15:36:00-04:00,139.52000427246094,139.52000427246094,139.49000549316406,139.49000549316406,421,0.0,0.0
2024-07-02 15:37:00-04:00,139.55999755859375,139.55999755859375,139.5500030517578,139.5500030517578,1070,0.0,0.0
2024-07-02 15:39:00-04:00,139.6300048828125,139.6300048828125,139.5500030517578,139.5500030517578,1004,0.0,0.0
2024-07-02 15:40:00-04:00,139.60499572753906,139.60499572753906,139.60000610351562,139.60000610351562,519,0.0,0.0
2024-07-02 15:42:00-04:00,139.55999755859375,139.58999633789062,139.52999877929688,139.53500366210938,2832,0.0,0.0
2024-07-02 15:45:00-04:00,139.49000549316406,139.5399932861328,139.47999572753906,139.52499389648438,1767,0.0,0.0
2024-07-02 15:46:00-04:00,139.57000732421875,139.69500732421875,139.57000732421875,139.69500732421875,1635,0.0,0.0
2024-07-02 15:47:00-04:00,139.6699981689453,139.6999969482422,139.57000732421875,139.61000061035156,3085,0.0,0.0
2024-07-02 15:48:00-04:00,139.55999755859375,139.55999755859375,139.55999755859375,139.55999755859375,298,0.0,0.0
2024-07-02 15:49:00-04:00,139.58999633789062,139.625,139.58999633789062,139.625,1684,0.0,0.0
2024-07-02 15:50:00-04:00,139.5500030517578,139.6699981689453,139.5500030517578,139.6699981689453,3425,0.0,0.0
2024-07-02 15:51:00-04:00,139.74000549316406,139.97000122070312,139.7100067138672,139.97000122070312,3991,0.0,0.0
2024-07-02 15:52:00-04:00,139.94000244140625,139.94000244140625,139.83999633789062,139.90499877929688,3017,0.0,0.0
2024-07-02 15:53:00-04:00,139.88999938964844,139.97999572753906,139.88999938964844,139.9499969482422,1848,0.0,0.0
2024-07-02 15:54:00-04:00,139.98500061035156,139.99000549316406,139.94000244140625,139.95750427246094,3870,0.0,0.0
2024-07-02 15:55:00-04:00,139.97000122070312,140.14999389648438,139.9499969482422,140.13999938964844,7023,0.0,0.0
2024-07-02 15:56:00-04:00,140.17999267578125,140.27999877929688,140.1699981689453,140.18499755859375,7870,0.0,0.0
2024-07-02 15:57:00-04:00,140.16000366210938,140.2449951171875,140.16000366210938,140.24000549316406,2987,0.0,0.0
2024-07-02 15:58:00-04:00,140.24000549316406,140.5,140.24000549316406,140.47999572753906,15161,0.0,0.0
2024-07-02 15:59:00-04:00,140.44000244140625,140.5,140.3800048828125,140.39999389648438,18173,0.0,0.0
2024-07-03 09:30:00-04:00,140.8800048828125,140.8800048828125,140.8800048828125,140.8800048828125,1387,0.0,0.0
2024-07-03 09:43:00-04:00,140.77999877929688,140.77999877929688,140.77999877929688,140.77999877929688,353,0.0,0.0
2024-07-03 09:45:00-04:00,140.57000732421875,140.81500244140625,140.57000732421875,140.81500244140625,1113,0.0,0.0
2024-07-03 09:51:00-04:00,141.1699981689453,141.1699981689453,141.1699981689453,141.1699981689453,1618,0.0,0.0
2024-07-03 09:54:00-04:00,141.15719604492188,141.15719604492188,141.15719604492188,141.15719604492188,377,0.0,0.0
2024-07-03 09:59:00-04:00,141.02499389648438,141.02999877929688,141.0175018310547,141.02999877929688,1995,0.0,0.0
2024-07-03 10:03:00-04:00,141.02000427246094,141.02000427246094,141.02000427246094,141.02000427246094,231,0.0,0.0
2024-07-03 10:04:00-04:00,140.875,140.875,140.875,140.875,301,0.0,0.0
2024-07-03 10:05:00-04:00,140.8800048828125,140.8800048828125,140.8800048828125,140.8800048828125,205,0.0,0.0
2024-07-03 10:06:00-04:00,140.88499450683594,140.88499450683594,140.88499450683594,140.88499450683594,146,0.0,0.0
2024-07-03 10:07:00-04:00,141.0500030517578,141.0500030517578,140.8946990966797,140.8946990966797,399,0.0,0.0
2024-07-03 10:08:00-04:00,141.0800018310547,141.39999389648438,141.0800018310547,141.39999389648438,1371,0.0,0.0
2024-07-03 10:09:00-04:00,141.2100067138672,141.3000030517578,141.13999938964844,141.3000030517578,4755,0.0,0.0
2024-07-03 10:19:00-04:00,141.0050048828125,141.1999969482422,140.97000122070312,141.1999969482422,3486,0.0,0.0
2024-07-03 10:22:00-04:00,141.2100067138672,141.24000549316406,141.2100067138672,141.24000549316406,1082,0.0,0.0
2024-07-03 10:33:00-04:00,141.1699981689453,141.1699981689453,141.1699981689453,141.1699981689453,489,0.0,0.0
2024-07-03 10:34:00-04:00,141.14500427246094,141.25,141.14500427246094,141.25,2539,0.0,0.0
2024-07-03 10:36:00-04:00,141.21499633789062,141.21499633789062,141.14999389648438,141.2100067138672,1279,0.0,0.0
2024-07-03 10:40:00-04:00,141.2050018310547,141.2050018310547,141.2050018310547,141.2050018310547,589,0.0,0.0
2024-07-03 10:43:00-04:00,141.14999389648438,141.22500610351562,141.14999389648438,141.22000122070312,2782,0.0,0.0
2024-07-03 10:45:00-04:00,141.24000549316406,141.24000549316406,141.08999633789062,141.08999633789062,3945,0.0,0.0
2024-07-03 10:47:00-04:00,141.02000427246094,141.10000610351562,140.99000549316406,140.99000549316406,2613,0.0,0.0
2024-07-03 10:52:00-04:00,141.0449981689453,141.0449981689453,141.0449981689453,141.0449981689453,242,0.0,0.0
2024-07-03 10:54:00-04:00,141.1199951171875,141.1199951171875,141.05999755859375,141.05999755859375,625,0.0,0.0
2024-07-03 10:58:00-04:00,141.10000610351562,141.10000610351562,141.10000610351562,141.10000610351562,406,0.0,0.0
2024-07-03 11:00:00-04:00,141.02000427246094,141.10000610351562,141.02000427246094,141.10000610351562,1497,0.0,0.0
2024-07-03 11:02:00-04:00,141.11000061035156,141.11000061035156,141.11000061035156,141.11000061035156,199,0.0,0.0
2024-07-03 11:03:00-04:00,141.17999267578125,141.27000427246094,141.17999267578125,141.2050018310547,1126,0.0,0.0
2024-07-03 11:05:00-04:00,141.1750030517578,141.1750030517578,141.14999389648438,141.14999389648438,1319,0.0,0.0
2024-07-03 11:07:00-04:00,141.07000732421875,141.13250732421875,141.07000732421875,141.1300048828125,3062,0.0,0.0
2024-07-03 11:08:00-04:00,141.1699981689453,141.18499755859375,141.05999755859375,141.05999755859375,1865,0.0,0.0
2024-07-03 11:09:00-04:00,141.08999633789062,141.10000610351562,141.08999633789062,141.10000610351562,503,0.0,0.0
2024-07-03 11:12:00-04:00,141.16000366210938,141.1699981689453,141.16000366210938,141.1699981689453,337,0.0,0.0
2024-07-03 11:13:00-04:00,141.17999267578125,141.17999267578125,141.17999267578125,141.17999267578125,347,0.0,0.0
2024-07-03 11:15:00-04:00,141.0399932861328,141.11500549316406,140.7100067138672,140.72000122070312,19266,0.0,0.0
2024-07-03 11:19:00-04:00,140.73500061035156,140.73500061035156,140.73500061035156,140.73500061035156,586,0.0,0.0
2024-07-03 11:20:00-04:00,140.86000061035156,140.91000366210938,140.83999633789062,140.83999633789062,1697,0.0,0.0
2024-07-03 11:29:00-04:00,140.76499938964844,140.76499938964844,140.76499938964844,140.76499938964844,434,0.0,0.0
2024-07-03 11:32:00-04:00,140.81759643554688,140.81759643554688,140.81759643554688,140.81759643554688,361,0.0,0.0
2024-07-03 11:35:00-04:00,140.8300018310547,140.83999633789062,140.8300018310547,140.83999633789062,1100,0.0,0.0
2024-07-03 11:41:00-04:00,140.8800048828125,140.8800048828125,140.8800048828125,140.8800048828125,230,0.0,0.0
2024-07-03 11:42:00-04:00,140.8699951171875,140.8699951171875,140.8699951171875,140.8699951171875,208,0.0,0.0
2024-07-03 11:43:00-04:00,140.77999877929688,140.77999877929688,140.77999877929688,140.77999877929688,198,0.0,0.0
2024-07-03 11:44:00-04:00,140.82000732421875,140.82000732421875,140.80499267578125,140.80499267578125,905,0.0,0.0
2024-07-03 11:45:00-04:00,140.82000732421875,140.82000732421875,140.72000122070312,140.78500366210938,10414,0.0,0.0
2024-07-03 11:46:00-04:00,140.7100067138672,140.7100067138672,140.7100067138672,140.7100067138672,309,0.0,0.0
2024-07-03 11:47:00-04:00,140.7100067138672,140.7100067138672,140.7100067138672,140.7100067138672,413,0.0,0.0
2024-07-03 11:54:00-04:00,140.82000732421875,140.89999389648438,140.82000732421875,140.89999389648438,1655,0.0,0.0
2024-07-03 11:57:00-04:00,140.92999267578125,140.92999267578125,140.92999267578125,140.92999267578125,941,0.0,0.0
2024-07-03 11:58:00-04:00,140.9199981689453,140.94000244140625,140.9199981689453,140.94000244140625,419,0.0,0.0
2024-07-03 11:59:00-04:00,140.9199981689453,140.9199981689453,140.82000732421875,140.82000732421875,1965,0.0,0.0
2024-07-03 12:01:00-04:00,140.8300018310547,140.8300018310547,140.8300018310547,140.8300018310547,266,0.0,0.0
2024-07-03 12:06:00-04:00,140.83999633789062,140.91000366210938,140.83999633789062,140.91000366210938,912,0.0,0.0
2024-07-03 12:08:00-04:00,140.85369873046875,140.85369873046875,140.85369873046875,140.85369873046875,182,0.0,0.0
2024-07-03 12:09:00-04:00,140.9199981689453,140.9199981689453,140.9199981689453,140.9199981689453,351,0.0,0.0
2024-07-03 12:11:00-04:00,140.88999938964844,140.88999938964844,140.88999938964844,140.88999938964844,383,0.0,0.0
2024-07-03 12:13:00-04:00,140.92999267578125,140.9499969482422,140.92999267578125,140.9499969482422,957,0.0,0.0
2024-07-03 12:14:00-04:00,140.95750427246094,140.95750427246094,140.95750427246094,140.95750427246094,354,0.0,0.0
2024-07-03 12:16:00-04:00,141.0399932861328,141.0399932861328,141.0399932861328,141.0399932861328,537,0.0,0.0
2024-07-03 12:20:00-04:00,140.97000122070312,141.00999450683594,140.94500732421875,140.96499633789062,2524,0.0,0.0
2024-07-03 12:22:00-04:00,140.94000244140625,140.94000244140625,140.94000244140625,140.94000244140625,348,0.0,0.0
2024-07-03 12:23:00-04:00,140.94000244140625,140.94000244140625,140.94000244140625,140.94000244140625,557,0.0,0.0
2024-07-03 12:28:00-04:00,140.94000244140625,140.94000244140625,140.86000061035156,140.86000061035156,1760,0.0,0.0
2024-07-03 12:30:00-04:00,140.85499572753906,140.85499572753906,140.84500122070312,140.84500122070312,616,0.0,0.0
2024-07-03 12:31:00-04:00,140.83999633789062,140.83999633789062,140.83999633789062,140.83999633789062,467,0.0,0.0
2024-07-03 12:34:00-04:00,140.91000366210938,140.91470336914062,140.91000366210938,140.91470336914062,438,0.0,0.0
2024-07-03 12:35:00-04:00,140.91000366210938,140.91000366210938,140.91000366210938,140.91000366210938,1247,0.0,0.0
2024-07-03 12:39:00-04:00,140.91000366210938,140.92999267578125,140.91000366210938,140.92999267578125,1402,0.0,0.0
2024-07-03 12:40:00-04:00,140.9199981689453,140.92999267578125,140.9199981689453,140.92999267578125,807,0.0,0.0
2024-07-03 12:42:00-04:00,141.0,141.02000427246094,140.9600067138672,141.02000427246094,891,0.0,0.0
2024-07-03 12:43:00-04:00,141.02999877929688,141.07000732421875,141.02999877929688,141.07000732421875,2256,0.0,0.0
2024-07-05 09:30:00-04:00,140.99000549316406,140.99000549316406,140.99000549316406,140.99000549316406,1415,0.0,0.0
2024-07-05 09:31:00-04:00,141.06500244140625,141.06500244140625,141.06500244140625,141.06500244140625,100,0.0,0.0
2024-07-05 09:32:00-04:00,141.06500244140625,141.42999267578125,141.05999755859375,141.42999267578125,4540,0.0,0.0
2024-07-05 09:43:00-04:00,141.1699981689453,141.43499755859375,141.14999389648438,141.43499755859375,1386,0.0,0.0
2024-07-05 09:50:00-04:00,141.22500610351562,141.22500610351562,141.22500610351562,141.22500610351562,148,0.0,0.0
2024-07-05 09:52:00-04:00,140.88999938964844,140.88999938964844,140.27000427246094,140.5749969482422,1525,0.0,0.0
2024-07-05 09:55:00-04:00,140.5749969482422,140.5749969482422,140.5749969482422,140.5749969482422,583,0.0,0.0
2024-07-05 09:56:00-04:00,140.5749969482422,140.69000244140625,140.5,140.69000244140625,801,0.0,0.0
2024-07-05 09:57:00-04:00,140.69000244140625,140.69000244140625,140.69000244140625,140.69000244140625,360,0.0,0.0
2024-07-05 10:01:00-04:00,140.52000427246094,140.52000427246094,140.52000427246094,140.52000427246094,302,0.0,0.0
2024-07-05 10:02:00-04:00,140.51499938964844,140.51499938964844,140.51499938964844,140.51499938964844,128,0.0,0.0
2024-07-05 10:05:00-04:00,140.72999572753906,140.72999572753906,140.36659240722656,140.37899780273438,1038,0.0,0.0
2024-07-05 10:06:00-04:00,140.53500366210938,140.53500366210938,140.53500366210938,140.53500366210938,140,0.0,0.0
2024-07-05 10:07:00-04:00,140.53500366210938,140.53500366210938,140.53500366210938,140.53500366210938,166,0.0,0.0
2024-07-05 10:08:00-04:00,140.53500366210938,140.53500366210938,140.53500366210938,140.53500366210938,169,0.0,0.0
2024-07-05 10:10:00-04:00,140.53500366210938,140.53500366210938,140.53500366210938,140.53500366210938,495,0.0,0.0
2024-07-05 10:13:00-04:00,140.72999572753906,140.72999572753906,140.72999572753906,140.72999572753906,241,0.0,0.0
2024-07-05 10:14:00-04:00,140.5800018310547,140.6999969482422,140.5800018310547,140.6999969482422,312,0.0,0.0
2024-07-05 10:15:00-04:00,140.72500610351562,140.72999572753906,140.54490661621094,140.72500610351562,1457,0.0,0.0
2024-07-05 10:16:00-04:00,140.7100067138672,140.7100067138672,140.7100067138672,140.7100067138672,412,0.0,0.0
2024-07-05 10:17:00-04:00,140.72999572753906,140.72999572753906,140.42999267578125,140.42999267578125,832,0.0,0.0
2024-07-05 10:18:00-04:00,140.5749969482422,140.72000122070312,140.45899963378906,140.6999969482422,776,0.0,0.0
2024-07-05 10:20:00-04:00,140.72000122070312,140.85000610351562,140.72000122070312,140.85000610351562,2766,0.0,0.0
2024-07-05 10:21:00-04:00,140.7100067138672,140.89999389648438,140.66000366210938,140.74000549316406,5517,0.0,0.0
2024-07-05 10:24:00-04:00,140.6750030517578,140.80999755859375,140.6750030517578,140.6750030517578,669,0.0,0.0
2024-07-05 10:26:00-04:00,140.9499969482422,140.9499969482422,140.9499969482422,140.9499969482422,312,0.0,0.0
2024-07-05 10:29:00-04:00,140.6750030517578,140.8000030517578,140.6199951171875,140.6199951171875,2143,0.0,0.0
2024-07-05 10:30:00-04:00,140.61500549316406,140.75999450683594,140.61500549316406,140.61500549316406,1245,0.0,0.0
2024-07-05 10:34:00-04:00,140.5850067138672,140.5850067138672,140.4499969482422,140.47500610351562,2188,0.0,0.0
2024-07-05 10:35:00-04:00,140.47500610351562,140.47500610351562,140.47500610351562,140.47500610351562,624,0.0,0.0
2024-07-05 10:36:00-04:00,140.47000122070312,140.47000122070312,140.47000122070312,140.47000122070312,283,0.0,0.0
2024-07-05 10:41:00-04:00,140.49000549316406,140.49000549316406,140.49000549316406,140.49000549316406,204,0.0,0.0
2024-07-05 10:42:00-04:00,140.48500061035156,140.48500061035156,140.47999572753906,140.47999572753906,1016,0.0,0.0
2024-07-05 10:45:00-04:00,140.38999938964844,140.38999938964844,140.38999938964844,140.38999938964844,238,0.0,0.0
2024-07-05 10:46:00-04:00,140.41000366210938,140.41000366210938,140.41000366210938,140.41000366210938,498,0.0,0.0
2024-07-05 10:47:00-04:00,140.41000366210938,140.41000366210938,140.27999877929688,140.27999877929688,1467,0.0,0.0
2024-07-05 10:50:00-04:00,140.17999267578125,140.17999267578125,140.17999267578125,140.17999267578125,438,0.0,0.0
2024-07-05 10:51:00-04:00,140.32000732421875,140.3699951171875,140.2899932861328,140.2899932861328,1160,0.0,0.0
2024-07-05 10:52:00-04:00,140.2899932861328,140.2899932861328,140.2899932861328,140.2899932861328,392,0.0,0.0
2024-07-05 10:57:00-04:00,140.1300048828125,140.13499450683594,140.08999633789062,140.13499450683594,1304,0.0,0.0
2024-07-05 11:01:00-04:00,140.2550048828125,140.2550048828125,140.2550048828125,140.2550048828125,145,0.0,0.0
2024-07-05 11:05:00-04:00,140.27999877929688,140.27999877929688,140.27999877929688,140.27999877929688,156,0.0,0.0
2024-07-05 11:06:00-04:00,140.27999877929688,140.27999877929688,140.27999877929688,140.27999877929688,430,0.0,0.0
2024-07-05 11:10:00-04:00,140.27999877929688,140.27999877929688,140.27999877929688,140.27999877929688,229,0.0,0.0
2024-07-05 11:11:00-04:00,140.14999389648438,140.22000122070312,140.10000610351562,140.10000610351562,1545,0.0,0.0
2024-07-05 11:13:00-04:00,140.0749969482422,140.0749969482422,140.0749969482422,140.0749969482422,634,0.0,0.0
2024-07-05 11:16:00-04:00,140.2100067138672,140.2100067138672,140.2100067138672,140.2100067138672,639,0.0,0.0
2024-07-05 11:19:00-04:00,140.10000610351562,140.10000610351562,140.10000610351562,140.10000610351562,306,0.0,0.0
2024-07-05 11:22:00-04:00,140.09500122070312,140.09500122070312,140.09500122070312,140.09500122070312,142,0.0,0.0
2024-07-05 11:23:00-04:00,140.09500122070312,140.09500122070312,139.77999877929688,139.85499572753906,2071,0.0,0.0
2024-07-05 11:24:00-04:00,139.77999877929688,139.8800048828125,139.76499938964844,139.76499938964844,1581,0.0,0.0
2024-07-05 11:32:00-04:00,139.85000610351562,139.89999389648438,139.85000610351562,139.89999389648438,420,0.0,0.0
2024-07-05 11:35:00-04:00,139.7899932861328,139.7899932861328,139.7899932861328,139.7899932861328,992,0.0,0.0
2024-07-05 11:37:00-04:00,139.86000061035156,139.86000061035156,139.86000061035156,139.86000061035156,770,0.0,0.0
2024-07-05 11:38:00-04:00,139.80999755859375,139.80999755859375,139.80999755859375,139.80999755859375,128,0.0,0.0
2024-07-05 11:39:00-04:00,139.77000427246094,139.80999755859375,139.77000427246094,139.80999755859375,477,0.0,0.0
2024-07-05 11:40:00-04:00,139.80999755859375,139.80999755859375,139.80999755859375,139.80999755859375,519,0.0,0.0
2024-07-05 11:43:00-04:00,139.81500244140625,139.81500244140625,139.72999572753906,139.81500244140625,777,0.0,0.0
2024-07-05 11:46:00-04:00,139.88999938964844,139.88999938964844,139.8300018310547,139.8300018310547,759,0.0,0.0
2024-07-05 11:49:00-04:00,139.94000244140625,139.9600067138672,139.94000244140625,139.9600067138672,550,0.0,0.0
2024-07-05 11:51:00-04:00,139.8800048828125,139.8800048828125,139.8350067138672,139.8350067138672,865,0.0,0.0
2024-07-05 11:52:00-04:00,139.8350067138672,139.8350067138672,139.8350067138672,139.8350067138672,169,0.0,0.0
2024-07-05 11:53:00-04:00,139.8300018310547,139.8350067138672,139.8300018310547,139.8350067138672,1440,0.0,0.0
2024-07-05 11:59:00-04:00,139.81500244140625,139.81500244140625,139.81500244140625,139.81500244140625,250,0.0,0.0
2024-07-05 12:01:00-04:00,139.8000030517578,139.8000030517578,139.8000030517578,139.8000030517578,549,0.0,0.0
2024-07-05 12:03:00-04:00,139.88999938964844,139.88999938964844,139.84750366210938,139.84750366210938,482,0.0,0.0
2024-07-05 12:05:00-04:00,139.8300018310547,139.8300018310547,139.8300018310547,139.8300018310547,124,0.0,0.0
2024-07-05 12:07:00-04:00,139.8249969482422,139.8249969482422,139.8249969482422,139.8249969482422,832,0.0,0.0
2024-07-05 12:13:00-04:00,139.83999633789062,139.83999633789062,139.7899932861328,139.82000732421875,946,0.0,0.0
2024-07-05 12:20:00-04:00,139.92999267578125,140.0,139.9250030517578,139.9250030517578,1874,0.0,0.0
2024-07-05 12:21:00-04:00,140.02999877929688,140.02999877929688,140.02999877929688,140.02999877929688,459,0.0,0.0
2024-07-05 12:23:00-04:00,140.02999877929688,140.02999877929688,139.97999572753906,139.97999572753906,629,0.0,0.0
2024-07-05 12:27:00-04:00,139.89500427246094,139.89500427246094,139.89500427246094,139.89500427246094,203,0.0,0.0
2024-07-05 12:28:00-04:00,140.02000427246094,140.02000427246094,140.02000427246094,140.02000427246094,220,0.0,0.0
2024-07-05 12:31:00-04:00,140.0070037841797,140.0070037841797,140.0070037841797,140.0070037841797,399,0.0,0.0
2024-07-05 12:35:00-04:00,139.84359741210938,139.84359741210938,139.84359741210938,139.84359741210938,292,0.0,0.0
2024-07-05 12:37:00-04:00,140.0,140.0,140.0,140.0,453,0.0,0.0
2024-07-05 12:40:00-04:00,140.0050048828125,140.0050048828125,140.0050048828125,140.0050048828125,202,0.0,0.0
2024-07-05 12:41:00-04:00,140.0,140.0,140.0,140.0,174,0.0,0.0
2024-07-05 12:42:00-04:00,140.0449981689453,140.0449981689453,140.0449981689453,140.0449981689453,228,0.0,0.0
2024-07-05 12:43:00-04:00,140.0449981689453,140.1699981689453,140.00999450683594,140.07000732421875,1763,0.0,0.0
2024-07-05 12:44:00-04:00,140.1699981689453,140.1999969482422,140.1699981689453,140.1999969482422,387,0.0,0.0
2024-07-05 12:50:00-04:00,140.22999572753906,140.22999572753906,140.19000244140625,140.2100067138672,1055,0.0,0.0
2024-07-05 12:52:00-04:00,140.11500549316406,140.13999938964844,140.11500549316406,140.13999938964844,1075,0.0,0.0
2024-07-05 13:08:00-04:00,140.24000549316406,140.24000549316406,140.24000549316406,140.24000549316406,359,0.0,0.0
2024-07-05 13:09:00-04:00,140.24000549316406,140.24000549316406,140.24000549316406,140.24000549316406,313,0.0,0.0
2024-07-05 13:10:00-04:00,140.16000366210938,140.16000366210938,140.14500427246094,140.14500427246094,448,0.0,0.0
2024-07-05 13:13:00-04:00,140.1750030517578,140.22999572753906,140.1750030517578,140.22999572753906,764,0.0,0.0
2024-07-05 13:15:00-04:00,140.1490020751953,140.1490020751953,140.1490020751953,140.1490020751953,296,0.0,0.0
2024-07-05 13:18:00-04:00,140.1779022216797,140.1779022216797,140.1779022216797,140.1779022216797,933,0.0,0.0
2024-07-05 13:24:00-04:00,140.1699981689453,140.1699981689453,140.1699981689453,140.1699981689453,108,0.0,0.0
2024-07-05 13:25:00-04:00,140.1750030517578,140.1750030517578,140.1750030517578,140.1750030517578,398,0.0,0.0
2024-07-05 13:26:00-04:00,140.25,140.25,140.25,140.25,853,0.0,0.0
2024-07-05 13:31:00-04:00,140.1374969482422,140.30999755859375,140.1374969482422,140.30999755859375,1326,0.0,0.0
2024-07-05 13:32:00-04:00,140.26100158691406,140.26100158691406,140.26100158691406,140.26100158691406,385,0.0,0.0
2024-07-05 13:39:00-04:00,140.32000732421875,140.36000061035156,140.32000732421875,140.36000061035156,626,0.0,0.0
2024-07-05 13:41:00-04:00,140.42999267578125,140.4600067138672,140.42999267578125,140.4600067138672,416,0.0,0.0
2024-07-05 13:42:00-04:00,140.46499633789062,140.46499633789062,140.46499633789062,140.46499633789062,529,0.0,0.0
2024-07-05 13:46:00-04:00,140.47999572753906,140.47999572753906,140.47999572753906,140.47999572753906,159,0.0,0.0
2024-07-05 13:47:00-04:00,140.47000122070312,140.47000122070312,140.4199981689453,140.43499755859375,1068,0.0,0.0
2024-07-05 13:52:00-04:00,140.4250030517578,140.4250030517578,140.4250030517578,140.4250030517578,366,0.0,0.0
2024-07-05 13:57:00-04:00,140.41000366210938,140.41000366210938,140.41000366210938,140.41000366210938,210,0.0,0.0
2024-07-05 14:01:00-04:00,140.3699951171875,140.3800048828125,140.3699951171875,140.3800048828125,1656,0.0,0.0
2024-07-05 14:07:00-04:00,140.3800048828125,140.3800048828125,140.3542938232422,140.3542938232422,614,0.0,0.0
2024-07-05 14:09:00-04:00,140.3699951171875,140.375,140.3699951171875,140.375,631,0.0,0.0
2024-07-05 14:11:00-04:00,140.375,140.375,140.375,140.375,176,0.0,0.0
2024-07-05 14:13:00-04:00,140.45989990234375,140.45989990234375,140.45989990234375,140.45989990234375,257,0.0,0.0
2024-07-05 14:15:00-04:00,140.36000061035156,140.36000061035156,140.36000061035156,140.36000061035156,304,0.0,0.0
2024-07-05 14:16:00-04:00,140.42999267578125,140.42999267578125,140.42999267578125,140.42999267578125,753,0.0,0.0
2024-07-05 14:18:00-04:00,140.4600067138672,140.4600067138672,140.4600067138672,140.4600067138672,217,0.0,0.0
2024-07-05 14:19:00-04:00,140.52000427246094,140.5399932861328,140.4499969482422,140.4499969482422,1558,0.0,0.0
2024-07-05 14:20:00-04:00,140.45599365234375,140.45599365234375,140.45010375976562,140.45010375976562,363,0.0,0.0
2024-07-05 14:21:00-04:00,140.4499969482422,140.4499969482422,140.41000366210938,140.41000366210938,463,0.0,0.0
2024-07-05 14:27:00-04:00,140.4199981689453,140.4199981689453,140.4199981689453,140.4199981689453,1012,0.0,0.0
2024-07-05 14:38:00-04:00,140.4550018310547,140.4550018310547,140.4550018310547,140.4550018310547,762,0.0,0.0
2024-07-05 14:42:00-04:00,140.47000122070312,140.47000122070312,140.47000122070312,140.47000122070312,193,0.0,0.0
2024-07-05 14:44:00-04:00,140.44500732421875,140.44500732421875,140.44500732421875,140.44500732421875,560,0.0,0.0
2024-07-05 14:51:00-04:00,140.52000427246094,140.52000427246094,140.52000427246094,140.52000427246094,994,0.0,0.0
2024-07-05 14:52:00-04:00,140.52000427246094,140.52000427246094,140.52000427246094,140.52000427246094,397,0.0,0.0
2024-07-05 14:54:00-04:00,140.53500366210938,140.53500366210938,140.53500366210938,140.53500366210938,192,0.0,0.0
2024-07-05 14:57:00-04:00,140.60000610351562,140.6300048828125,140.60000610351562,140.60000610351562,1621,0.0,0.0
2024-07-05 15:02:00-04:00,140.66119384765625,140.66119384765625,140.66119384765625,140.66119384765625,927,0.0,0.0
2024-07-05 15:09:00-04:00,140.58999633789062,140.58999633789062,140.5500030517578,140.5500030517578,848,0.0,0.0
2024-07-05 15:12:00-04:00,140.66000366210938,140.66000366210938,140.66000366210938,140.66000366210938,397,0.0,0.0
2024-07-05 15:16:00-04:00,140.55999755859375,140.55999755859375,140.55999755859375,140.55999755859375,507,0.0,0.0
2024-07-05 15:17:00-04:00,140.66000366210938,140.66000366210938,140.64999389648438,140.64999389648438,716,0.0,0.0
2024-07-05 15:20:00-04:00,140.6999969482422,140.6999969482422,140.6999969482422,140.6999969482422,546,0.0,0.0
2024-07-05 15:24:00-04:00,140.66000366210938,140.66000366210938,140.66000366210938,140.66000366210938,545,0.0,0.0
2024-07-05 15:26:00-04:00,140.6300048828125,140.6300048828125,140.60000610351562,140.6300048828125,868,0.0,0.0
2024-07-05 15:27:00-04:00,140.58709716796875,140.58709716796875,140.58709716796875,140.58709716796875,181,0.0,0.0
2024-07-05 15:30:00-04:00,140.69000244140625,140.69000244140625,140.68499755859375,140.68499755859375,707,0.0,0.0
2024-07-05 15:31:00-04:00,140.69000244140625,140.69000244140625,140.69000244140625,140.69000244140625,257,0.0,0.0
2024-07-05 15:32:00-04:00,140.67999267578125,140.67999267578125,140.67999267578125,140.67999267578125,505,0.0,0.0
2024-07-05 15:33:00-04:00,140.66000366210938,140.72999572753906,140.63999938964844,140.72999572753906,1935,0.0,0.0
2024-07-05 15:35:00-04:00,140.8000030517578,140.8000030517578,140.8000030517578,140.8000030517578,478,0.0,0.0
2024-07-05 15:36:00-04:00,140.8000030517578,140.8000030517578,140.8000030517578,140.8000030517578,493,0.0,0.0
2024-07-05 15:37:00-04:00,140.74000549316406,140.74000549316406,140.74000549316406,140.74000549316406,1167,0.0,0.0
2024-07-05 15:39:00-04:00,140.6999969482422,140.6999969482422,140.69000244140625,140.69000244140625,457,0.0,0.0
2024-07-05 15:41:00-04:00,140.7050018310547,140.7050018310547,140.6300048828125,140.6300048828125,1832,0.0,0.0
2024-07-05 15:43:00-04:00,140.66000366210938,140.6699981689453,140.64999389648438,140.64999389648438,1055,0.0,0.0
2024-07-05 15:45:00-04:00,140.69000244140625,140.7899932861328,140.69000244140625,140.7899932861328,1327,0.0,0.0
2024-07-05 15:46:00-04:00,140.7899932861328,140.7899932861328,140.7899932861328,140.7899932861328,125,0.0,0.0
2024-07-05 15:48:00-04:00,140.82000732421875,140.99000549316406,140.82000732421875,140.88499450683594,3295,0.0,0.0
2024-07-05 15:49:00-04:00,140.8300018310547,140.8300018310547,140.75,140.75,1537,0.0,0.0
2024-07-05 15:50:00-04:00,140.80999755859375,140.8699951171875,140.80999755859375,140.8699951171875,875,0.0,0.0
2024-07-05 15:51:00-04:00,140.91000366210938,140.97000122070312,140.8800048828125,140.97000122070312,1989,0.0,0.0
2024-07-05 15:52:00-04:00,141.0,141.0,140.97000122070312,140.97000122070312,1437,0.0,0.0
2024-07-05 15:53:00-04:00,140.92999267578125,141.00999450683594,140.92999267578125,141.00999450683594,2154,0.0,0.0
2024-07-05 15:54:00-04:00,141.0500030517578,141.2050018310547,141.0500030517578,141.2050018310547,1744,0.0,0.0
2024-07-05 15:55:00-04:00,141.14999389648438,141.22000122070312,141.0800018310547,141.0800018310547,4219,0.0,0.0
2024-07-05 15:56:00-04:00,141.00999450683594,141.00999450683594,140.9600067138672,140.9600067138672,940,0.0,0.0
2024-07-05 15:57:00-04:00,140.99000549316406,140.99000549316406,140.85000610351562,140.85000610351562,3801,0.0,0.0
2024-07-05 15:58:00-04:00,140.83999633789062,140.92999267578125,140.80999755859375,140.92999267578125,5439,0.0,0.0
2024-07-05 15:59:00-04:00,140.88999938964844,140.91000366210938,140.82000732421875,140.89999389648438,9276,0.0,0.0
