Datetime,Open,High,Low,Close,Volume,Dividends,Stock Splits
2024-05-28 09:30:00-04:00,147.6199951171875,147.6199951171875,147.6199951171875,147.6199951171875,0,0.0,0.0
2024-05-28 09:31:00-04:00,147.77499389648438,147.77499389648438,147.77000427246094,147.77000427246094,1621,0.0,0.0
2024-05-28 09:32:00-04:00,147.76499938964844,147.76499938964844,147.76499938964844,147.76499938964844,258,0.0,0.0
2024-05-28 09:40:00-04:00,147.32000732421875,147.32000732421875,147.32000732421875,147.32000732421875,283,0.0,0.0
2024-05-28 09:41:00-04:00,147.2899932861328,147.2899932861328,147.00999450683594,147.00999450683594,874,0.0,0.0
2024-05-28 09:44:00-04:00,147.17999267578125,147.17999267578125,147.17999267578125,147.17999267578125,137,0.0,0.0
2024-05-28 09:49:00-04:00,147.07000732421875,147.07000732421875,147.07000732421875,147.07000732421875,318,0.0,0.0
2024-05-28 09:50:00-04:00,147.32000732421875,147.32000732421875,147.19000244140625,147.19000244140625,1079,0.0,0.0
2024-05-28 09:51:00-04:00,147.17999267578125,147.17999267578125,147.17999267578125,147.17999267578125,322,0.0,0.0
2024-05-28 09:55:00-04:00,147.02000427246094,147.02000427246094,147.0,147.0,492,0.0,0.0
2024-05-28 09:56:00-04:00,147.19000244140625,147.19000244140625,147.19000244140625,147.19000244140625,1358,0.0,0.0
2024-05-28 10:04:00-04:00,146.83999633789062,146.83999633789062,146.83999633789062,146.83999633789062,101,0.0,0.0
2024-05-28 10:05:00-04:00,146.99000549316406,146.99000549316406,146.99000549316406,146.99000549316406,117,0.0,0.0
2024-05-28 10:06:00-04:00,146.99000549316406,146.99000549316406,146.99000549316406,146.99000549316406,278,0.0,0.0
2024-05-28 10:09:00-04:00,147.00999450683594,147.00999450683594,147.00999450683594,147.00999450683594,366,0.0,0.0
2024-05-28 10:12:00-04:00,147.00999450683594,147.00999450683594,147.00999450683594,147.00999450683594,474,0.0,0.0
2024-05-28 10:18:00-04:00,147.01499938964844,147.01499938964844,147.01499938964844,147.01499938964844,277,0.0,0.0
2024-05-28 10:20:00-04:00,147.00999450683594,147.2949981689453,147.00999450683594,147.2949981689453,2552,0.0,0.0
2024-05-28 10:22:00-04:00,147.1699981689453,147.1699981689453,147.1699981689453,147.1699981689453,222,0.0,0.0
2024-05-28 10:23:00-04:00,147.1699981689453,147.24000549316406,147.1699981689453,147.24000549316406,1095,0.0,0.0
2024-05-28 10:27:00-04:00,147.11000061035156,147.11000061035156,147.11000061035156,147.11000061035156,201,0.0,0.0
2024-05-28 10:30:00-04:00,147.10499572753906,147.10499572753906,147.10499572753906,147.10499572753906,300,0.0,0.0
2024-05-28 10:32:00-04:00,147.10499572753906,147.10499572753906,147.10499572753906,147.10499572753906,299,0.0,0.0
2024-05-28 10:33:00-04:00,147.10499572753906,147.10499572753906,147.10499572753906,147.10499572753906,101,0.0,0.0
2024-05-28 10:34:00-04:00,147.10499572753906,147.10499572753906,147.10499572753906,147.10499572753906,235,0.0,0.0
2024-05-28 10:35:00-04:00,147.10499572753906,147.10499572753906,147.10499572753906,147.10499572753906,594,0.0,0.0
2024-05-28 10:36:00-04:00,147.1699981689453,147.1699981689453,147.10499572753906,147.10499572753906,207,0.0,0.0
2024-05-28 10:38:00-04:00,147.10000610351562,147.10000610351562,147.10000610351562,147.10000610351562,969,0.0,0.0
2024-05-28 10:39:00-04:00,147.10000610351562,147.10000610351562,146.57000732421875,146.60000610351562,6569,0.0,0.0
2024-05-28 10:46:00-04:00,146.7050018310547,146.7050018310547,146.7050018310547,146.7050018310547,102,0.0,0.0
2024-05-28 10:47:00-04:00,146.6300048828125,146.6300048828125,146.6300048828125,146.6300048828125,145,0.0,0.0
2024-05-28 10:50:00-04:00,146.6199951171875,146.6199951171875,146.6199951171875,146.6199951171875,251,0.0,0.0
2024-05-28 10:53:00-04:00,146.69500732421875,146.69500732421875,146.69500732421875,146.69500732421875,232,0.0,0.0
2024-05-28 10:56:00-04:00,146.58999633789062,146.58999633789062,146.58999633789062,146.58999633789062,300,0.0,0.0
2024-05-28 10:57:00-04:00,146.6750030517578,146.6750030517578,146.53500366210938,146.53500366210938,1063,0.0,0.0
2024-05-28 10:58:00-04:00,146.5500030517578,146.69000244140625,146.5500030517578,146.67999267578125,3049,0.0,0.0
2024-05-28 11:02:00-04:00,146.7550048828125,146.7550048828125,146.7550048828125,146.7550048828125,225,0.0,0.0
2024-05-28 11:09:00-04:00,146.8300018310547,146.8699951171875,146.8300018310547,146.8699951171875,841,0.0,0.0
2024-05-28 11:10:00-04:00,146.86000061035156,146.86000061035156,146.86000061035156,146.86000061035156,200,0.0,0.0
2024-05-28 11:11:00-04:00,146.8000030517578,146.8000030517578,146.8000030517578,146.8000030517578,132,0.0,0.0
2024-05-28 11:12:00-04:00,146.97000122070312,146.97000122070312,146.97000122070312,146.97000122070312,210,0.0,0.0
2024-05-28 11:19:00-04:00,147.00999450683594,147.00999450683594,147.00999450683594,147.00999450683594,334,0.0,0.0
2024-05-28 11:20:00-04:00,147.00999450683594,147.00999450683594,147.00999450683594,147.00999450683594,391,0.0,0.0
2024-05-28 11:27:00-04:00,147.0050048828125,147.0050048828125,147.0050048828125,147.0050048828125,236,0.0,0.0
2024-05-28 11:30:00-04:00,146.9199981689453,146.9199981689453,146.89999389648438,146.89999389648438,1315,0.0,0.0
2024-05-28 11:33:00-04:00,146.8300018310547,146.8300018310547,146.8300018310547,146.8300018310547,696,0.0,0.0
2024-05-28 11:34:00-04:00,146.75999450683594,146.75999450683594,146.75999450683594,146.75999450683594,342,0.0,0.0
2024-05-28 11:35:00-04:00,146.63999938964844,146.63999938964844,146.63999938964844,146.63999938964844,376,0.0,0.0
2024-05-28 11:40:00-04:00,146.7100067138672,146.7100067138672,146.6699981689453,146.69000244140625,1521,0.0,0.0
2024-05-28 11:49:00-04:00,146.6699981689453,146.74000549316406,146.64999389648438,146.6750030517578,2410,0.0,0.0
2024-05-28 11:50:00-04:00,146.6750030517578,146.6750030517578,146.6750030517578,146.6750030517578,262,0.0,0.0
2024-05-28 11:53:00-04:00,146.69000244140625,146.69000244140625,146.69000244140625,146.69000244140625,188,0.0,0.0
2024-05-28 11:55:00-04:00,146.69000244140625,146.69000244140625,146.69000244140625,146.69000244140625,195,0.0,0.0
2024-05-28 11:58:00-04:00,146.6300048828125,146.6300048828125,146.50999450683594,146.60000610351562,1624,0.0,0.0
2024-05-28 12:00:00-04:00,146.5050048828125,146.5050048828125,146.5050048828125,146.5050048828125,323,0.0,0.0
2024-05-28 12:02:00-04:00,146.4600067138672,146.4600067138672,146.4600067138672,146.4600067138672,211,0.0,0.0
2024-05-28 12:03:00-04:00,146.35499572753906,146.35499572753906,146.25,146.35000610351562,862,0.0,0.0
2024-05-28 12:05:00-04:00,146.35000610351562,146.35000610351562,146.35000610351562,146.35000610351562,131,0.0,0.0
2024-05-28 12:09:00-04:00,146.34500122070312,146.34500122070312,146.34500122070312,146.34500122070312,334,0.0,0.0
2024-05-28 12:13:00-04:00,146.33999633789062,146.33999633789062,146.33999633789062,146.33999633789062,104,0.0,0.0
2024-05-28 12:14:00-04:00,146.4029998779297,146.4029998779297,146.4029998779297,146.4029998779297,486,0.0,0.0
2024-05-28 12:20:00-04:00,146.30999755859375,146.30999755859375,146.24000549316406,146.24000549316406,650,0.0,0.0
2024-05-28 12:22:00-04:00,146.2899932861328,146.2899932861328,146.2899932861328,146.2899932861328,455,0.0,0.0
2024-05-28 12:28:00-04:00,146.22999572753906,146.22999572753906,146.1199951171875,146.1199951171875,595,0.0,0.0
2024-05-28 12:29:00-04:00,146.1999969482422,146.1999969482422,146.1999969482422,146.1999969482422,402,0.0,0.0
2024-05-28 12:32:00-04:00,146.125,146.125,146.125,146.125,102,0.0,0.0
2024-05-28 12:33:00-04:00,146.1199951171875,146.1199951171875,146.1199951171875,146.1199951171875,484,0.0,0.0
2024-05-28 12:37:00-04:00,146.17999267578125,146.1999969482422,146.16000366210938,146.1699981689453,2689,0.0,0.0
2024-05-28 12:38:00-04:00,146.1699981689453,146.1699981689453,146.1699981689453,146.1699981689453,158,0.0,0.0
2024-05-28 12:39:00-04:00,146.2100067138672,146.25,146.2100067138672,146.25,1078,0.0,0.0
2024-05-28 12:51:00-04:00,146.22000122070312,146.22000122070312,146.22000122070312,146.22000122070312,200,0.0,0.0
2024-05-28 12:52:00-04:00,146.3699951171875,146.3699951171875,146.3699951171875,146.3699951171875,320,0.0,0.0
2024-05-28 12:53:00-04:00,146.27499389648438,146.27499389648438,146.27499389648438,146.27499389648438,403,0.0,0.0
2024-05-28 13:01:00-04:00,146.22000122070312,146.22000122070312,146.22000122070312,146.22000122070312,109,0.0,0.0
2024-05-28 13:02:00-04:00,146.1999969482422,146.1999969482422,146.1300048828125,146.15499877929688,2165,0.0,0.0
2024-05-28 13:07:00-04:00,146.1300048828125,146.1300048828125,146.1300048828125,146.1300048828125,507,0.0,0.0
2024-05-28 13:10:00-04:00,146.16000366210938,146.16000366210938,146.16000366210938,146.16000366210938,319,0.0,0.0
2024-05-28 13:11:00-04:00,146.25999450683594,146.27000427246094,146.25999450683594,146.27000427246094,408,0.0,0.0
2024-05-28 13:15:00-04:00,146.33999633789062,146.33999633789062,146.33999633789062,146.33999633789062,270,0.0,0.0
2024-05-28 13:20:00-04:00,146.33999633789062,146.33999633789062,146.33999633789062,146.33999633789062,279,0.0,0.0
2024-05-28 13:28:00-04:00,146.30999755859375,146.30999755859375,146.30999755859375,146.30999755859375,133,0.0,0.0
2024-05-28 13:30:00-04:00,146.22999572753906,146.22999572753906,146.22999572753906,146.22999572753906,509,0.0,0.0
2024-05-28 13:32:00-04:00,146.2899932861328,146.2899932861328,146.27499389648438,146.27499389648438,629,0.0,0.0
2024-05-28 13:33:00-04:00,146.3300018310547,146.35000610351562,146.2949981689453,146.2949981689453,930,0.0,0.0
2024-05-28 13:34:00-04:00,146.35000610351562,146.35000610351562,146.35000610351562,146.35000610351562,334,0.0,0.0
2024-05-28 13:40:00-04:00,146.25999450683594,146.25999450683594,146.25999450683594,146.25999450683594,1293,0.0,0.0
2024-05-28 13:43:00-04:00,146.22999572753906,146.22999572753906,146.22999572753906,146.22999572753906,292,0.0,0.0
2024-05-28 13:46:00-04:00,146.19000244140625,146.19000244140625,146.1699981689453,146.1699981689453,534,0.0,0.0
2024-05-28 13:49:00-04:00,146.08999633789062,146.08999633789062,146.08999633789062,146.08999633789062,118,0.0,0.0
2024-05-28 13:50:00-04:00,146.17999267578125,146.17999267578125,146.17999267578125,146.17999267578125,631,0.0,0.0
2024-05-28 13:56:00-04:00,146.14089965820312,146.14089965820312,146.14089965820312,146.14089965820312,322,0.0,0.0
2024-05-28 13:59:00-04:00,146.16000366210938,146.16000366210938,146.14999389648438,146.14999389648438,734,0.0,0.0
2024-05-28 14:03:00-04:00,146.14500427246094,146.14500427246094,146.14500427246094,146.14500427246094,101,0.0,0.0
2024-05-28 14:04:00-04:00,146.16000366210938,146.17999267578125,146.16000366210938,146.17999267578125,1438,0.0,0.0
2024-05-28 14:06:00-04:00,146.1999969482422,146.1999969482422,146.1999969482422,146.1999969482422,517,0.0,0.0
2024-05-28 14:11:00-04:00,146.2899932861328,146.2899932861328,146.2899932861328,146.2899932861328,657,0.0,0.0
2024-05-28 14:12:00-04:00,146.35000610351562,146.35000610351562,146.35000610351562,146.35000610351562,578,0.0,0.0
2024-05-28 14:13:00-04:00,146.35000610351562,146.35000610351562,146.3000030517578,146.3000030517578,863,0.0,0.0
2024-05-28 14:18:00-04:00,146.2949981689453,146.30499267578125,146.27000427246094,146.27000427246094,562,0.0,0.0
2024-05-28 14:19:00-04:00,146.24000549316406,146.24000549316406,146.24000549316406,146.24000549316406,243,0.0,0.0
2024-05-28 14:20:00-04:00,146.1999969482422,146.1999969482422,146.1999969482422,146.1999969482422,303,0.0,0.0
2024-05-28 14:21:00-04:00,146.20860290527344,146.2100067138672,146.1999969482422,146.2100067138672,963,0.0,0.0
2024-05-28 14:24:00-04:00,146.22000122070312,146.24000549316406,146.22000122070312,146.24000549316406,952,0.0,0.0
2024-05-28 14:25:00-04:00,146.2100067138672,146.2100067138672,146.13999938964844,146.13999938964844,626,0.0,0.0
2024-05-28 14:27:00-04:00,146.14999389648438,146.14999389648438,146.14500427246094,146.14500427246094,525,0.0,0.0
2024-05-28 14:30:00-04:00,146.0800018310547,146.0800018310547,145.99729919433594,146.0500030517578,820,0.0,0.0
2024-05-28 14:32:00-04:00,146.07000732421875,146.07000732421875,146.07000732421875,146.07000732421875,439,0.0,0.0
2024-05-28 14:33:00-04:00,146.0399932861328,146.0399932861328,146.0399932861328,146.0399932861328,250,0.0,0.0
2024-05-28 14:35:00-04:00,146.00660705566406,146.00660705566406,146.00660705566406,146.00660705566406,205,0.0,0.0
2024-05-28 14:36:00-04:00,145.9600067138672,145.97000122070312,145.9499969482422,145.9499969482422,743,0.0,0.0
2024-05-28 14:43:00-04:00,145.9499969482422,145.9499969482422,145.9499969482422,145.9499969482422,902,0.0,0.0
2024-05-28 14:53:00-04:00,145.9149932861328,146.02000427246094,145.9149932861328,146.02000427246094,2833,0.0,0.0
2024-05-28 14:56:00-04:00,146.13999938964844,146.13999938964844,146.11000061035156,146.11000061035156,625,0.0,0.0
2024-05-28 14:57:00-04:00,146.11000061035156,146.11000061035156,146.11000061035156,146.11000061035156,811,0.0,0.0
2024-05-28 15:02:00-04:00,146.0800018310547,146.0800018310547,146.0800018310547,146.0800018310547,210,0.0,0.0
2024-05-28 15:04:00-04:00,146.07000732421875,146.07000732421875,146.07000732421875,146.07000732421875,549,0.0,0.0
2024-05-28 15:07:00-04:00,146.11000061035156,146.11000061035156,146.11000061035156,146.11000061035156,1047,0.0,0.0
2024-05-28 15:10:00-04:00,146.0399932861328,146.0399932861328,146.0399932861328,146.0399932861328,294,0.0,0.0
2024-05-28 15:12:00-04:00,146.02000427246094,146.02000427246094,146.0,146.00999450683594,889,0.0,0.0
2024-05-28 15:13:00-04:00,146.00999450683594,146.00999450683594,146.00999450683594,146.00999450683594,298,0.0,0.0
2024-05-28 15:14:00-04:00,145.97999572753906,145.97999572753906,145.97999572753906,145.97999572753906,1111,0.0,0.0
2024-05-28 15:18:00-04:00,145.96499633789062,146.0399932861328,145.96499633789062,146.0399932861328,568,0.0,0.0
2024-05-28 15:19:00-04:00,146.0800018310547,146.1300048828125,146.0399932861328,146.1300048828125,1361,0.0,0.0
2024-05-28 15:25:00-04:00,146.1300048828125,146.17999267578125,146.1300048828125,146.17999267578125,2189,0.0,0.0
2024-05-28 15:26:00-04:00,146.2050018310547,146.2050018310547,146.1699981689453,146.19920349121094,513,0.0,0.0
2024-05-28 15:27:00-04:00,146.24899291992188,146.24899291992188,146.24899291992188,146.24899291992188,179,0.0,0.0
2024-05-28 15:29:00-04:00,146.1699981689453,146.1699981689453,146.1699981689453,146.1699981689453,745,0.0,0.0
2024-05-28 15:32:00-04:00,146.1999969482422,146.1999969482422,146.19500732421875,146.19500732421875,544,0.0,0.0
2024-05-28 15:34:00-04:00,146.23899841308594,146.23899841308594,146.23899841308594,146.23899841308594,255,0.0,0.0
2024-05-28 15:36:00-04:00,146.22999572753906,146.22999572753906,146.22999572753906,146.22999572753906,240,0.0,0.0
2024-05-28 15:37:00-04:00,146.24000549316406,146.24000549316406,146.22999572753906,146.22999572753906,4105,0.0,0.0
2024-05-28 15:38:00-04:00,146.1999969482422,146.1999969482422,146.16000366210938,146.16000366210938,610,0.0,0.0
2024-05-28 15:39:00-04:00,146.15499877929688,146.15499877929688,146.07000732421875,146.07000732421875,957,0.0,0.0
2024-05-28 15:44:00-04:00,146.125,146.125,146.0,146.0,1561,0.0,0.0
2024-05-28 15:45:00-04:00,145.99000549316406,146.00999450683594,145.97999572753906,146.00999450683594,850,0.0,0.0
2024-05-28 15:47:00-04:00,146.0050048828125,146.02999877929688,145.89999389648438,145.92999267578125,2504,0.0,0.0
2024-05-28 15:49:00-04:00,145.91000366210938,145.91000366210938,145.91000366210938,145.91000366210938,363,0.0,0.0
2024-05-28 15:50:00-04:00,145.88999938964844,145.88999938964844,145.82000732421875,145.85000610351562,1926,0.0,0.0
2024-05-28 15:51:00-04:00,145.89999389648438,145.99000549316406,145.89999389648438,145.99000549316406,1538,0.0,0.0
2024-05-28 15:52:00-04:00,145.99000549316406,146.1300048828125,145.99000549316406,146.11000061035156,1757,0.0,0.0
2024-05-28 15:53:00-04:00,146.14999389648438,146.14999389648438,146.11000061035156,146.11000061035156,1507,0.0,0.0
2024-05-28 15:54:00-04:00,146.08999633789062,146.2100067138672,146.08999633789062,146.19000244140625,4378,0.0,0.0
2024-05-28 15:55:00-04:00,146.14999389648438,146.4199981689453,146.10499572753906,146.4199981689453,9806,0.0,0.0
2024-05-28 15:56:00-04:00,146.3699951171875,146.57000732421875,146.3699951171875,146.57000732421875,7673,0.0,0.0
2024-05-28 15:57:00-04:00,146.57200622558594,146.57200622558594,146.35000610351562,146.55999755859375,11297,0.0,0.0
2024-05-28 15:58:00-04:00,146.5399932861328,146.57000732421875,146.47000122070312,146.5,6465,0.0,0.0
2024-05-28 15:59:00-04:00,146.5,146.88999938964844,146.49000549316406,146.74000549316406,34414,0.0,0.0
2024-05-29 09:30:00-04:00,145.64999389648438,145.64999389648438,145.64999389648438,145.64999389648438,1775,0.0,0.0
2024-05-29 09:35:00-04:00,146.6999969482422,146.6999969482422,146.59500122070312,146.59500122070312,359,0.0,0.0
2024-05-29 09:37:00-04:00,145.61000061035156,145.61000061035156,145.61000061035156,145.61000061035156,100,0.0,0.0
2024-05-29 09:39:00-04:00,146.0800018310547,146.0800018310547,146.0800018310547,146.0800018310547,261,0.0,0.0
2024-05-29 09:47:00-04:00,145.3000030517578,145.3000030517578,145.3000030517578,145.3000030517578,1162,0.0,0.0
2024-05-29 09:50:00-04:00,145.58059692382812,145.58059692382812,145.4550018310547,145.4550018310547,795,0.0,0.0
2024-05-29 09:52:00-04:00,145.36000061035156,145.36000061035156,145.36000061035156,145.36000061035156,149,0.0,0.0
2024-05-29 09:54:00-04:00,145.35000610351562,145.35000610351562,145.35000610351562,145.35000610351562,132,0.0,0.0
2024-05-29 09:58:00-04:00,145.30999755859375,145.32000732421875,145.30999755859375,145.32000732421875,318,0.0,0.0
2024-05-29 09:59:00-04:00,145.32000732421875,145.32000732421875,145.2899932861328,145.2899932861328,672,0.0,0.0
2024-05-29 10:00:00-04:00,145.49000549316406,145.52999877929688,145.49000549316406,145.52999877929688,893,0.0,0.0
2024-05-29 10:02:00-04:00,145.53500366210938,145.53500366210938,145.53500366210938,145.53500366210938,118,0.0,0.0
2024-05-29 10:04:00-04:00,145.53500366210938,145.53500366210938,145.53500366210938,145.53500366210938,113,0.0,0.0
2024-05-29 10:05:00-04:00,145.5449981689453,145.5449981689453,145.5449981689453,145.5449981689453,747,0.0,0.0
2024-05-29 10:06:00-04:00,145.5449981689453,145.5449981689453,145.5449981689453,145.5449981689453,106,0.0,0.0
2024-05-29 10:07:00-04:00,145.5449981689453,145.5449981689453,145.5449981689453,145.5449981689453,186,0.0,0.0
2024-05-29 10:09:00-04:00,145.39999389648438,145.39999389648438,145.39999389648438,145.39999389648438,213,0.0,0.0
2024-05-29 10:11:00-04:00,145.8000030517578,145.8000030517578,145.8000030517578,145.8000030517578,311,0.0,0.0
2024-05-29 10:12:00-04:00,145.30999755859375,145.30999755859375,145.30999755859375,145.30999755859375,181,0.0,0.0
2024-05-29 10:14:00-04:00,145.61000061035156,145.61000061035156,145.3350067138672,145.4550018310547,2574,0.0,0.0
2024-05-29 10:16:00-04:00,145.22999572753906,145.306396484375,145.22999572753906,145.306396484375,885,0.0,0.0
2024-05-29 10:24:00-04:00,145.3300018310547,145.3300018310547,145.3300018310547,145.3300018310547,321,0.0,0.0
2024-05-29 10:26:00-04:00,145.60499572753906,145.6199951171875,145.60499572753906,145.6199951171875,576,0.0,0.0
2024-05-29 10:27:00-04:00,145.52000427246094,145.52000427246094,145.52000427246094,145.52000427246094,279,0.0,0.0
2024-05-29 10:28:00-04:00,145.66749572753906,145.69000244140625,145.66749572753906,145.69000244140625,883,0.0,0.0
2024-05-29 10:31:00-04:00,145.92999267578125,146.0399932861328,145.92999267578125,146.0399932861328,599,0.0,0.0
2024-05-29 10:33:00-04:00,145.97000122070312,145.97999572753906,145.97000122070312,145.97000122070312,903,0.0,0.0
2024-05-29 10:34:00-04:00,145.96499633789062,145.96499633789062,145.96499633789062,145.96499633789062,446,0.0,0.0
2024-05-29 10:38:00-04:00,146.02000427246094,146.02000427246094,146.02000427246094,146.02000427246094,137,0.0,0.0
2024-05-29 10:39:00-04:00,146.0399932861328,146.0399932861328,146.0399932861328,146.0399932861328,449,0.0,0.0
2024-05-29 10:43:00-04:00,145.85000610351562,145.85499572753906,145.85000610351562,145.85499572753906,770,0.0,0.0
2024-05-29 10:46:00-04:00,145.83250427246094,145.83250427246094,145.83250427246094,145.83250427246094,140,0.0,0.0
2024-05-29 10:48:00-04:00,145.6699981689453,145.6699981689453,145.6699981689453,145.6699981689453,332,0.0,0.0
2024-05-29 10:51:00-04:00,145.6699981689453,145.6699981689453,145.6699981689453,145.6699981689453,371,0.0,0.0
2024-05-29 10:56:00-04:00,145.63999938964844,145.63999938964844,145.63999938964844,145.63999938964844,338,0.0,0.0
2024-05-29 10:58:00-04:00,145.7100067138672,145.7100067138672,145.61000061035156,145.61000061035156,999,0.0,0.0
2024-05-29 10:59:00-04:00,145.80999755859375,145.80999755859375,145.80999755859375,145.80999755859375,239,0.0,0.0
2024-05-29 11:00:00-04:00,145.6649932861328,145.6649932861328,145.6649932861328,145.6649932861328,155,0.0,0.0
2024-05-29 11:01:00-04:00,145.77000427246094,145.77000427246094,145.77000427246094,145.77000427246094,691,0.0,0.0
2024-05-29 11:04:00-04:00,145.63499450683594,145.63499450683594,145.5800018310547,145.63499450683594,872,0.0,0.0
2024-05-29 11:06:00-04:00,145.5399932861328,145.55999755859375,145.5399932861328,145.55999755859375,639,0.0,0.0
2024-05-29 11:11:00-04:00,145.55499267578125,145.55499267578125,145.47999572753906,145.52999877929688,522,0.0,0.0
2024-05-29 11:13:00-04:00,145.5749969482422,145.5800018310547,145.52999877929688,145.52999877929688,1188,0.0,0.0
2024-05-29 11:14:00-04:00,145.47999572753906,145.52499389648438,145.47999572753906,145.52499389648438,881,0.0,0.0
2024-05-29 11:15:00-04:00,145.47500610351562,145.5500030517578,145.47500610351562,145.5500030517578,575,0.0,0.0
2024-05-29 11:18:00-04:00,145.52000427246094,145.52000427246094,145.52000427246094,145.52000427246094,145,0.0,0.0
2024-05-29 11:19:00-04:00,145.39999389648438,145.39999389648438,145.39999389648438,145.39999389648438,428,0.0,0.0
2024-05-29 11:27:00-04:00,145.41000366210938,145.41000366210938,145.40499877929688,145.40499877929688,1326,0.0,0.0
2024-05-29 11:30:00-04:00,145.1999969482422,145.1999969482422,145.1999969482422,145.1999969482422,449,0.0,0.0
2024-05-29 11:34:00-04:00,145.14500427246094,145.14500427246094,145.14500427246094,145.14500427246094,300,0.0,0.0
2024-05-29 11:35:00-04:00,145.16000366210938,145.16000366210938,145.16000366210938,145.16000366210938,125,0.0,0.0
2024-05-29 11:36:00-04:00,145.0800018310547,145.14500427246094,145.0,145.13999938964844,2558,0.0,0.0
2024-05-29 11:37:00-04:00,145.25999450683594,145.3000030517578,145.13999938964844,145.1999969482422,2131,0.0,0.0
2024-05-29 11:38:00-04:00,145.1999969482422,145.1999969482422,145.1999969482422,145.1999969482422,552,0.0,0.0
2024-05-29 11:42:00-04:00,145.0800018310547,145.0800018310547,144.9499969482422,144.9499969482422,1119,0.0,0.0
2024-05-29 11:43:00-04:00,144.98500061035156,144.99000549316406,144.9499969482422,144.9875030517578,1023,0.0,0.0
2024-05-29 11:44:00-04:00,145.0050048828125,145.0050048828125,145.0050048828125,145.0050048828125,104,0.0,0.0
2024-05-29 11:45:00-04:00,145.0399932861328,145.07000732421875,145.0399932861328,145.07000732421875,656,0.0,0.0
2024-05-29 11:46:00-04:00,145.0,145.0,145.0,145.0,162,0.0,0.0
2024-05-29 11:47:00-04:00,144.9199981689453,145.0050048828125,144.9199981689453,145.0050048828125,508,0.0,0.0
2024-05-29 11:49:00-04:00,145.0050048828125,145.0050048828125,145.0050048828125,145.0050048828125,169,0.0,0.0
2024-05-29 11:50:00-04:00,145.13999938964844,145.13999938964844,145.02499389648438,145.02499389648438,1120,0.0,0.0
2024-05-29 11:52:00-04:00,145.14500427246094,145.14500427246094,145.14500427246094,145.14500427246094,188,0.0,0.0
2024-05-29 11:53:00-04:00,145.14500427246094,145.14500427246094,145.14500427246094,145.14500427246094,359,0.0,0.0
2024-05-29 11:56:00-04:00,145.14500427246094,145.14500427246094,145.14500427246094,145.14500427246094,248,0.0,0.0
2024-05-29 11:57:00-04:00,145.14500427246094,145.14500427246094,145.14500427246094,145.14500427246094,260,0.0,0.0
2024-05-29 11:59:00-04:00,145.14500427246094,145.14500427246094,145.14500427246094,145.14500427246094,291,0.0,0.0
2024-05-29 12:00:00-04:00,145.02999877929688,145.0399932861328,144.85499572753906,144.85499572753906,1063,0.0,0.0
2024-05-29 12:02:00-04:00,144.97999572753906,144.97999572753906,144.97999572753906,144.97999572753906,210,0.0,0.0
2024-05-29 12:05:00-04:00,144.97999572753906,144.97999572753906,144.97999572753906,144.97999572753906,251,0.0,0.0
2024-05-29 12:06:00-04:00,144.97999572753906,144.97999572753906,144.97999572753906,144.97999572753906,167,0.0,0.0
2024-05-29 12:07:00-04:00,144.9470977783203,144.9470977783203,144.9470977783203,144.9470977783203,391,0.0,0.0
2024-05-29 12:10:00-04:00,144.97999572753906,144.97999572753906,144.97999572753906,144.97999572753906,522,0.0,0.0
2024-05-29 12:16:00-04:00,144.9949951171875,144.9949951171875,144.9949951171875,144.9949951171875,132,0.0,0.0
2024-05-29 12:17:00-04:00,144.9949951171875,144.9949951171875,144.9949951171875,144.9949951171875,256,0.0,0.0
2024-05-29 12:19:00-04:00,144.9949951171875,144.9949951171875,144.9949951171875,144.9949951171875,354,0.0,0.0
2024-05-29 12:20:00-04:00,145.1199951171875,145.1199951171875,144.9949951171875,144.9949951171875,2094,0.0,0.0
2024-05-29 12:21:00-04:00,145.13499450683594,145.13499450683594,145.13499450683594,145.13499450683594,221,0.0,0.0
2024-05-29 12:23:00-04:00,145.13499450683594,145.13499450683594,145.13499450683594,145.13499450683594,120,0.0,0.0
2024-05-29 12:24:00-04:00,145.1199951171875,145.1199951171875,145.1199951171875,145.1199951171875,115,0.0,0.0
2024-05-29 12:26:00-04:00,145.11500549316406,145.22000122070312,145.11500549316406,145.22000122070312,383,0.0,0.0
2024-05-29 12:27:00-04:00,145.13499450683594,145.13499450683594,145.13499450683594,145.13499450683594,468,0.0,0.0
2024-05-29 12:34:00-04:00,145.14500427246094,145.14500427246094,145.14500427246094,145.14500427246094,275,0.0,0.0
2024-05-29 12:37:00-04:00,145.14500427246094,145.14500427246094,145.14500427246094,145.14500427246094,377,0.0,0.0
2024-05-29 12:38:00-04:00,145.14500427246094,145.1649932861328,145.14500427246094,145.1649932861328,1180,0.0,0.0
2024-05-29 12:42:00-04:00,145.1855926513672,145.1855926513672,145.1855926513672,145.1855926513672,203,0.0,0.0
2024-05-29 12:44:00-04:00,145.1649932861328,145.24000549316406,145.1649932861328,145.1649932861328,631,0.0,0.0
2024-05-29 12:48:00-04:00,145.25999450683594,145.25999450683594,145.1699981689453,145.1699981689453,381,0.0,0.0
2024-05-29 12:50:00-04:00,145.3730010986328,145.3730010986328,145.23500061035156,145.23500061035156,1101,0.0,0.0
2024-05-29 12:55:00-04:00,145.47999572753906,145.47999572753906,145.4199981689453,145.4199981689453,373,0.0,0.0
2024-05-29 12:56:00-04:00,145.3300018310547,145.3300018310547,145.3300018310547,145.3300018310547,675,0.0,0.0
2024-05-29 13:00:00-04:00,145.25,145.25,145.25,145.25,640,0.0,0.0
2024-05-29 13:01:00-04:00,145.375,145.375,145.375,145.375,140,0.0,0.0
2024-05-29 13:02:00-04:00,145.375,145.375,145.375,145.375,660,0.0,0.0
2024-05-29 13:15:00-04:00,145.25,145.25999450683594,145.22000122070312,145.22000122070312,2152,0.0,0.0
2024-05-29 13:16:00-04:00,145.16000366210938,145.16000366210938,145.16000366210938,145.16000366210938,347,0.0,0.0
2024-05-29 13:17:00-04:00,145.16000366210938,145.2899932861328,145.16000366210938,145.22999572753906,1919,0.0,0.0
2024-05-29 13:19:00-04:00,145.30999755859375,145.30999755859375,145.30999755859375,145.30999755859375,106,0.0,0.0
2024-05-29 13:20:00-04:00,145.30999755859375,145.30999755859375,145.30999755859375,145.30999755859375,351,0.0,0.0
2024-05-29 13:22:00-04:00,145.14849853515625,145.30999755859375,145.14849853515625,145.30999755859375,915,0.0,0.0
2024-05-29 13:23:00-04:00,145.30999755859375,145.30999755859375,145.27000427246094,145.27000427246094,983,0.0,0.0
2024-05-29 13:28:00-04:00,145.34500122070312,145.34500122070312,145.34500122070312,145.34500122070312,1075,0.0,0.0
2024-05-29 13:37:00-04:00,145.19000244140625,145.1999969482422,145.17999267578125,145.17999267578125,653,0.0,0.0
2024-05-29 13:40:00-04:00,145.1999969482422,145.1999969482422,145.1999969482422,145.1999969482422,753,0.0,0.0
2024-05-29 13:50:00-04:00,145.13999938964844,145.13999938964844,145.0,145.0,705,0.0,0.0
2024-05-29 13:51:00-04:00,145.05499267578125,145.0800018310547,145.02999877929688,145.02999877929688,1468,0.0,0.0
2024-05-29 13:54:00-04:00,145.02999877929688,145.02999877929688,145.02999877929688,145.02999877929688,848,0.0,0.0
2024-05-29 13:59:00-04:00,144.72999572753906,144.72999572753906,144.72999572753906,144.72999572753906,151,0.0,0.0
2024-05-29 14:00:00-04:00,144.74000549316406,144.74000549316406,144.74000549316406,144.74000549316406,382,0.0,0.0
2024-05-29 14:03:00-04:00,144.7949981689453,144.7949981689453,144.7949981689453,144.7949981689453,264,0.0,0.0
2024-05-29 14:05:00-04:00,144.89999389648438,144.91000366210938,144.88999938964844,144.88999938964844,1180,0.0,0.0
2024-05-29 14:07:00-04:00,144.86500549316406,144.86500549316406,144.86500549316406,144.86500549316406,1008,0.0,0.0
2024-05-29 14:11:00-04:00,144.9199981689453,144.9199981689453,144.875,144.875,461,0.0,0.0
2024-05-29 14:12:00-04:00,144.875,144.875,144.875,144.875,350,0.0,0.0
2024-05-29 14:13:00-04:00,144.8800048828125,144.8800048828125,144.8800048828125,144.8800048828125,320,0.0,0.0
2024-05-29 14:14:00-04:00,144.80999755859375,144.80999755859375,144.80999755859375,144.80999755859375,301,0.0,0.0
2024-05-29 14:15:00-04:00,144.85499572753906,144.85499572753906,144.85499572753906,144.85499572753906,907,0.0,0.0
2024-05-29 14:26:00-04:00,144.90499877929688,144.91000366210938,144.90499877929688,144.91000366210938,1045,0.0,0.0
2024-05-29 14:33:00-04:00,144.9241943359375,144.9241943359375,144.86000061035156,144.8699951171875,2585,0.0,0.0
2024-05-29 14:47:00-04:00,144.83999633789062,144.83999633789062,144.77999877929688,144.81500244140625,832,0.0,0.0
2024-05-29 14:49:00-04:00,144.75999450683594,144.75999450683594,144.74000549316406,144.74000549316406,236,0.0,0.0
2024-05-29 14:50:00-04:00,144.82000732421875,144.82000732421875,144.7100067138672,144.7100067138672,1014,0.0,0.0
2024-05-29 14:54:00-04:00,144.75,144.7899932861328,144.72000122070312,144.72000122070312,1771,0.0,0.0
2024-05-29 14:59:00-04:00,144.75999450683594,144.8000030517578,144.75999450683594,144.8000030517578,475,0.0,0.0
2024-05-29 15:02:00-04:00,144.7899932861328,144.8468017578125,144.75999450683594,144.75999450683594,1218,0.0,0.0
2024-05-29 15:03:00-04:00,144.8699951171875,144.94000244140625,144.8699951171875,144.94000244140625,1021,0.0,0.0
2024-05-29 15:08:00-04:00,144.88999938964844,144.9499969482422,144.88999938964844,144.9499969482422,466,0.0,0.0
2024-05-29 15:11:00-04:00,144.77999877929688,144.77999877929688,144.77999877929688,144.77999877929688,694,0.0,0.0
2024-05-29 15:14:00-04:00,144.75999450683594,144.75999450683594,144.75999450683594,144.75999450683594,201,0.0,0.0
2024-05-29 15:15:00-04:00,144.7100067138672,144.7100067138672,144.7100067138672,144.7100067138672,263,0.0,0.0
2024-05-29 15:19:00-04:00,144.67999267578125,144.67999267578125,144.67999267578125,144.67999267578125,1206,0.0,0.0
2024-05-29 15:24:00-04:00,144.7100067138672,144.7100067138672,144.7100067138672,144.7100067138672,941,0.0,0.0
2024-05-29 15:26:00-04:00,144.75,144.75,144.75,144.75,505,0.0,0.0
2024-05-29 15:27:00-04:00,144.77000427246094,144.77000427246094,144.72000122070312,144.72999572753906,2601,0.0,0.0
2024-05-29 15:29:00-04:00,144.61500549316406,144.61500549316406,144.61500549316406,144.61500549316406,476,0.0,0.0
2024-05-29 15:31:00-04:00,144.51499938964844,144.51499938964844,144.51499938964844,144.51499938964844,118,0.0,0.0
2024-05-29 15:32:00-04:00,144.52000427246094,144.52000427246094,144.52000427246094,144.52000427246094,533,0.0,0.0
2024-05-29 15:33:00-04:00,144.63999938964844,144.63999938964844,144.61000061035156,144.61000061035156,601,0.0,0.0
2024-05-29 15:34:00-04:00,144.6300048828125,144.69000244140625,144.6300048828125,144.69000244140625,1387,0.0,0.0
2024-05-29 15:35:00-04:00,144.73500061035156,144.73500061035156,144.73500061035156,144.73500061035156,612,0.0,0.0
2024-05-29 15:36:00-04:00,144.83999633789062,144.83999633789062,144.83999633789062,144.83999633789062,365,0.0,0.0
2024-05-29 15:39:00-04:00,144.9600067138672,144.99000549316406,144.9600067138672,144.99000549316406,701,0.0,0.0
2024-05-29 15:41:00-04:00,145.0500030517578,145.0500030517578,145.0500030517578,145.0500030517578,295,0.0,0.0
2024-05-29 15:42:00-04:00,145.1300048828125,145.17999267578125,145.10000610351562,145.1199951171875,2425,0.0,0.0
2024-05-29 15:43:00-04:00,145.27999877929688,145.27999877929688,145.17999267578125,145.17999267578125,542,0.0,0.0
2024-05-29 15:44:00-04:00,145.17999267578125,145.17999267578125,145.17999267578125,145.17999267578125,970,0.0,0.0
2024-05-29 15:46:00-04:00,145.1999969482422,145.1999969482422,145.1999969482422,145.1999969482422,662,0.0,0.0
2024-05-29 15:47:00-04:00,145.22999572753906,145.22999572753906,145.22999572753906,145.22999572753906,384,0.0,0.0
2024-05-29 15:48:00-04:00,145.1699981689453,145.1699981689453,145.1199951171875,145.14500427246094,809,0.0,0.0
2024-05-29 15:49:00-04:00,145.22000122070312,145.27000427246094,145.22000122070312,145.27000427246094,1198,0.0,0.0
2024-05-29 15:50:00-04:00,145.1999969482422,145.1999969482422,145.1999969482422,145.1999969482422,451,0.0,0.0
2024-05-29 15:51:00-04:00,145.1999969482422,145.1999969482422,145.19000244140625,145.19000244140625,474,0.0,0.0
2024-05-29 15:52:00-04:00,145.1300048828125,145.1300048828125,145.1300048828125,145.1300048828125,699,0.0,0.0
2024-05-29 15:53:00-04:00,145.16000366210938,145.19000244140625,145.1300048828125,145.1300048828125,1984,0.0,0.0
2024-05-29 15:54:00-04:00,145.05999755859375,145.07000732421875,145.05999755859375,145.07000732421875,1439,0.0,0.0
2024-05-29 15:55:00-04:00,145.00999450683594,145.00999450683594,144.77000427246094,144.77000427246094,2191,0.0,0.0
2024-05-29 15:56:00-04:00,144.80999755859375,144.82000732421875,144.77000427246094,144.80999755859375,3291,0.0,0.0
2024-05-29 15:57:00-04:00,144.82000732421875,144.94000244140625,144.82000732421875,144.94000244140625,2428,0.0,0.0
2024-05-29 15:58:00-04:00,144.9199981689453,144.9600067138672,144.86000061035156,144.8699951171875,2370,0.0,0.0
2024-05-29 15:59:00-04:00,144.8699951171875,144.9199981689453,144.80999755859375,144.80999755859375,6315,0.0,0.0
2024-05-30 09:31:00-04:00,145.42999267578125,145.42999267578125,145.42999267578125,145.42999267578125,0,0.0,0.0
2024-05-30 09:32:00-04:00,145.7949981689453,145.7949981689453,145.7949981689453,145.7949981689453,2225,0.0,0.0
2024-05-30 09:33:00-04:00,145.7949981689453,145.7949981689453,145.7949981689453,145.7949981689453,254,0.0,0.0
2024-05-30 09:34:00-04:00,145.7949981689453,145.7949981689453,145.7949981689453,145.7949981689453,202,0.0,0.0
2024-05-30 09:37:00-04:00,145.7899932861328,145.7899932861328,145.7899932861328,145.7899932861328,220,0.0,0.0
2024-05-30 09:38:00-04:00,145.4600067138672,145.7899932861328,145.38999938964844,145.4199981689453,1319,0.0,0.0
2024-05-30 09:39:00-04:00,145.39999389648438,145.41000366210938,145.3699951171875,145.41000366210938,541,0.0,0.0
2024-05-30 09:43:00-04:00,145.4600067138672,145.4600067138672,145.4600067138672,145.4600067138672,361,0.0,0.0
2024-05-30 09:47:00-04:00,145.3800048828125,145.4600067138672,145.3800048828125,145.4600067138672,230,0.0,0.0
2024-05-30 09:51:00-04:00,145.27000427246094,145.27000427246094,145.27000427246094,145.27000427246094,100,0.0,0.0
2024-05-30 09:52:00-04:00,145.27000427246094,145.27000427246094,145.27000427246094,145.27000427246094,409,0.0,0.0
2024-05-30 09:53:00-04:00,145.27000427246094,145.27000427246094,145.17999267578125,145.19000244140625,805,0.0,0.0
2024-05-30 09:54:00-04:00,145.27000427246094,145.27000427246094,145.27000427246094,145.27000427246094,263,0.0,0.0
2024-05-30 09:57:00-04:00,145.27499389648438,145.27499389648438,145.27499389648438,145.27499389648438,205,0.0,0.0
2024-05-30 09:59:00-04:00,145.27499389648438,145.27499389648438,145.27499389648438,145.27499389648438,322,0.0,0.0
2024-05-30 10:00:00-04:00,145.27499389648438,145.27499389648438,145.27499389648438,145.27499389648438,400,0.0,0.0
2024-05-30 10:01:00-04:00,145.27499389648438,145.27499389648438,145.27499389648438,145.27499389648438,255,0.0,0.0
2024-05-30 10:02:00-04:00,145.27499389648438,145.27499389648438,145.27499389648438,145.27499389648438,287,0.0,0.0
2024-05-30 10:03:00-04:00,145.1999969482422,145.38999938964844,145.17999267578125,145.17999267578125,3996,0.0,0.0
2024-05-30 10:04:00-04:00,145.13999938964844,145.18499755859375,145.10000610351562,145.18499755859375,2298,0.0,0.0
2024-05-30 10:05:00-04:00,145.11000061035156,145.11000061035156,145.10000610351562,145.10000610351562,347,0.0,0.0
2024-05-30 10:06:00-04:00,145.10000610351562,145.10000610351562,145.0,145.0050048828125,2540,0.0,0.0
2024-05-30 10:07:00-04:00,145.0500030517578,145.14999389648438,145.0,145.14999389648438,886,0.0,0.0
2024-05-30 10:09:00-04:00,145.13999938964844,145.13999938964844,145.10000610351562,145.10020446777344,1500,0.0,0.0
2024-05-30 10:10:00-04:00,145.08999633789062,145.1300048828125,145.00999450683594,145.00999450683594,5329,0.0,0.0
2024-05-30 10:11:00-04:00,145.05499267578125,145.19000244140625,145.0500030517578,145.17999267578125,3369,0.0,0.0
2024-05-30 10:12:00-04:00,145.23500061035156,145.23500061035156,145.23500061035156,145.23500061035156,284,0.0,0.0
2024-05-30 10:13:00-04:00,145.2899932861328,145.2899932861328,145.27999877929688,145.2899932861328,311,0.0,0.0
2024-05-30 10:14:00-04:00,145.3300018310547,145.33999633789062,145.14500427246094,145.2550048828125,1282,0.0,0.0
2024-05-30 10:15:00-04:00,145.1699981689453,145.27000427246094,145.1699981689453,145.27000427246094,339,0.0,0.0
2024-05-30 10:18:00-04:00,145.44500732421875,145.44500732421875,145.44500732421875,145.44500732421875,104,0.0,0.0
2024-05-30 10:19:00-04:00,145.55499267578125,145.55499267578125,145.55499267578125,145.55499267578125,1634,0.0,0.0
2024-05-30 10:20:00-04:00,145.7100067138672,145.91000366210938,145.7100067138672,145.91000366210938,1162,0.0,0.0
2024-05-30 10:22:00-04:00,145.8699951171875,145.89999389648438,145.75,145.75,2022,0.0,0.0
2024-05-30 10:26:00-04:00,145.66000366210938,145.66000366210938,145.60000610351562,145.61000061035156,1060,0.0,0.0
2024-05-30 10:27:00-04:00,145.73500061035156,145.73500061035156,145.73500061035156,145.73500061035156,418,0.0,0.0
2024-05-30 10:29:00-04:00,145.85000610351562,145.85000610351562,145.83999633789062,145.83999633789062,639,0.0,0.0
2024-05-30 10:30:00-04:00,145.90699768066406,145.90699768066406,145.90699768066406,145.90699768066406,241,0.0,0.0
2024-05-30 10:34:00-04:00,145.97999572753906,146.14999389648438,145.97999572753906,146.00999450683594,854,0.0,0.0
2024-05-30 10:36:00-04:00,146.01499938964844,146.01499938964844,146.01499938964844,146.01499938964844,444,0.0,0.0
2024-05-30 10:37:00-04:00,145.9199981689453,145.9199981689453,145.8699951171875,145.8699951171875,662,0.0,0.0
2024-05-30 10:43:00-04:00,145.9499969482422,145.9499969482422,145.9499969482422,145.9499969482422,348,0.0,0.0
2024-05-30 10:44:00-04:00,145.9600067138672,145.9600067138672,145.9600067138672,145.9600067138672,222,0.0,0.0
2024-05-30 10:45:00-04:00,145.97500610351562,145.97500610351562,145.9499969482422,145.9499969482422,590,0.0,0.0
2024-05-30 10:46:00-04:00,145.98500061035156,145.98500061035156,145.98500061035156,145.98500061035156,307,0.0,0.0
2024-05-30 10:47:00-04:00,145.9499969482422,146.00999450683594,145.94000244140625,145.97999572753906,3327,0.0,0.0
2024-05-30 10:48:00-04:00,145.97999572753906,145.97999572753906,145.97999572753906,145.97999572753906,666,0.0,0.0
2024-05-30 10:49:00-04:00,146.0,146.0,146.0,146.0,116,0.0,0.0
2024-05-30 10:50:00-04:00,146.02000427246094,146.02000427246094,146.02000427246094,146.02000427246094,314,0.0,0.0
2024-05-30 10:52:00-04:00,146.18710327148438,146.18710327148438,146.18710327148438,146.18710327148438,2274,0.0,0.0
2024-05-30 10:53:00-04:00,146.14500427246094,146.14500427246094,146.14500427246094,146.14500427246094,544,0.0,0.0
2024-05-30 10:54:00-04:00,146.10000610351562,146.10000610351562,145.93499755859375,145.93499755859375,2837,0.0,0.0
2024-05-30 10:55:00-04:00,145.97999572753906,145.97999572753906,145.93499755859375,145.93499755859375,943,0.0,0.0
2024-05-30 10:56:00-04:00,145.92999267578125,145.92999267578125,145.92999267578125,145.92999267578125,786,0.0,0.0
2024-05-30 10:57:00-04:00,145.97000122070312,145.99000549316406,145.92999267578125,145.92999267578125,1337,0.0,0.0
2024-05-30 10:58:00-04:00,145.9250030517578,145.9250030517578,145.9250030517578,145.9250030517578,131,0.0,0.0
2024-05-30 10:59:00-04:00,145.94000244140625,145.94000244140625,145.94000244140625,145.94000244140625,370,0.0,0.0
2024-05-30 11:01:00-04:00,145.99249267578125,145.99249267578125,145.99249267578125,145.99249267578125,256,0.0,0.0
2024-05-30 11:02:00-04:00,145.8800048828125,145.89999389648438,145.7100067138672,145.7100067138672,2471,0.0,0.0
2024-05-30 11:03:00-04:00,145.69000244140625,145.85000610351562,145.69000244140625,145.77499389648438,3062,0.0,0.0
2024-05-30 11:04:00-04:00,145.8000030517578,145.8000030517578,145.75,145.7949981689453,410,0.0,0.0
2024-05-30 11:05:00-04:00,145.7899932861328,145.7949981689453,145.75,145.75,882,0.0,0.0
2024-05-30 11:08:00-04:00,145.85499572753906,145.85499572753906,145.75,145.75,300,0.0,0.0
2024-05-30 11:09:00-04:00,145.75,145.75,145.75,145.75,905,0.0,0.0
2024-05-30 11:10:00-04:00,145.75,145.75,145.75,145.75,336,0.0,0.0
2024-05-30 11:11:00-04:00,145.69000244140625,145.69000244140625,145.69000244140625,145.69000244140625,645,0.0,0.0
2024-05-30 11:13:00-04:00,145.66000366210938,145.72000122070312,145.6300048828125,145.6649932861328,2820,0.0,0.0
2024-05-30 11:14:00-04:00,145.74000549316406,145.8300018310547,145.72000122070312,145.82000732421875,2505,0.0,0.0
2024-05-30 11:15:00-04:00,145.77000427246094,145.77000427246094,145.75999450683594,145.75999450683594,768,0.0,0.0
2024-05-30 11:18:00-04:00,145.75999450683594,145.75999450683594,145.75999450683594,145.75999450683594,100,0.0,0.0
2024-05-30 11:20:00-04:00,145.8000030517578,145.8000030517578,145.8000030517578,145.8000030517578,3382,0.0,0.0
2024-05-30 11:21:00-04:00,145.97999572753906,145.97999572753906,145.97999572753906,145.97999572753906,324,0.0,0.0
2024-05-30 11:22:00-04:00,145.92999267578125,145.92999267578125,145.89999389648438,145.89999389648438,537,0.0,0.0
2024-05-30 11:23:00-04:00,145.94500732421875,145.94500732421875,145.89500427246094,145.89500427246094,631,0.0,0.0
2024-05-30 11:24:00-04:00,145.89500427246094,145.89500427246094,145.89500427246094,145.89500427246094,291,0.0,0.0
2024-05-30 11:27:00-04:00,145.88999938964844,145.88999938964844,145.88999938964844,145.88999938964844,187,0.0,0.0
2024-05-30 11:28:00-04:00,145.88999938964844,145.9499969482422,145.8800048828125,145.9199981689453,2596,0.0,0.0
2024-05-30 11:29:00-04:00,145.8699951171875,145.88999938964844,145.83999633789062,145.88999938964844,3867,0.0,0.0
2024-05-30 11:31:00-04:00,145.88999938964844,145.88999938964844,145.88999938964844,145.88999938964844,396,0.0,0.0
2024-05-30 11:33:00-04:00,146.0,146.0,146.0,146.0,305,0.0,0.0
2024-05-30 11:34:00-04:00,146.10499572753906,146.10499572753906,146.10499572753906,146.10499572753906,180,0.0,0.0
2024-05-30 11:35:00-04:00,146.02000427246094,146.02000427246094,146.02000427246094,146.02000427246094,814,0.0,0.0
2024-05-30 11:36:00-04:00,145.8800048828125,145.8800048828125,145.8800048828125,145.8800048828125,475,0.0,0.0
2024-05-30 11:37:00-04:00,145.88999938964844,145.88999938964844,145.86500549316406,145.86500549316406,797,0.0,0.0
2024-05-30 11:39:00-04:00,145.86000061035156,145.86000061035156,145.86000061035156,145.86000061035156,206,0.0,0.0
2024-05-30 11:40:00-04:00,145.86000061035156,145.86000061035156,145.8300018310547,145.8300018310547,1127,0.0,0.0
2024-05-30 11:42:00-04:00,145.77999877929688,145.7899932861328,145.77999877929688,145.7899932861328,497,0.0,0.0
2024-05-30 11:43:00-04:00,145.78250122070312,145.78500366210938,145.78250122070312,145.78500366210938,839,0.0,0.0
2024-05-30 11:45:00-04:00,145.75,145.75,145.6999969482422,145.6999969482422,441,0.0,0.0
2024-05-30 11:46:00-04:00,145.72999572753906,145.72999572753906,145.66000366210938,145.66000366210938,303,0.0,0.0
2024-05-30 11:48:00-04:00,145.72999572753906,145.72999572753906,145.72999572753906,145.72999572753906,101,0.0,0.0
2024-05-30 11:49:00-04:00,145.72999572753906,145.72999572753906,145.72999572753906,145.72999572753906,657,0.0,0.0
2024-05-30 11:52:00-04:00,145.7100067138672,145.7100067138672,145.66000366210938,145.66000366210938,956,0.0,0.0
2024-05-30 11:53:00-04:00,145.66000366210938,145.66000366210938,145.64999389648438,145.64999389648438,1185,0.0,0.0
2024-05-30 11:55:00-04:00,145.50999450683594,145.50999450683594,145.50999450683594,145.50999450683594,219,0.0,0.0
2024-05-30 11:56:00-04:00,145.52499389648438,145.5399932861328,145.5,145.51499938964844,854,0.0,0.0
2024-05-30 11:57:00-04:00,145.52000427246094,145.63999938964844,145.52000427246094,145.55999755859375,2180,0.0,0.0
2024-05-30 11:58:00-04:00,145.72500610351562,145.72500610351562,145.72500610351562,145.72500610351562,174,0.0,0.0
2024-05-30 12:00:00-04:00,145.72999572753906,145.72999572753906,145.72999572753906,145.72999572753906,301,0.0,0.0
2024-05-30 12:04:00-04:00,145.6999969482422,145.72000122070312,145.69000244140625,145.72000122070312,1280,0.0,0.0
2024-05-30 12:05:00-04:00,145.72999572753906,145.72999572753906,145.72999572753906,145.72999572753906,359,0.0,0.0
2024-05-30 12:06:00-04:00,145.67999267578125,145.72000122070312,145.67999267578125,145.67999267578125,874,0.0,0.0
2024-05-30 12:09:00-04:00,145.64999389648438,145.76109313964844,145.63999938964844,145.69500732421875,1751,0.0,0.0
2024-05-30 12:11:00-04:00,145.47999572753906,145.47999572753906,145.47999572753906,145.47999572753906,153,0.0,0.0
2024-05-30 12:12:00-04:00,145.4199981689453,145.5399932861328,145.4199981689453,145.5399932861328,840,0.0,0.0
2024-05-30 12:16:00-04:00,145.5500030517578,145.91000366210938,145.52999877929688,145.52999877929688,2221,0.0,0.0
2024-05-30 12:19:00-04:00,146.05999755859375,146.05999755859375,146.05999755859375,146.05999755859375,215,0.0,0.0
2024-05-30 12:23:00-04:00,145.93499755859375,145.93499755859375,145.93499755859375,145.93499755859375,285,0.0,0.0
2024-05-30 12:27:00-04:00,146.0,146.0,146.0,146.0,245,0.0,0.0
2024-05-30 12:28:00-04:00,145.97000122070312,145.97000122070312,145.97000122070312,145.97000122070312,426,0.0,0.0
2024-05-30 12:34:00-04:00,146.16000366210938,146.16000366210938,146.13999938964844,146.13999938964844,488,0.0,0.0
2024-05-30 12:39:00-04:00,146.25,146.5050048828125,146.25,146.5050048828125,1642,0.0,0.0
2024-05-30 12:40:00-04:00,146.69000244140625,146.69000244140625,146.67999267578125,146.67999267578125,507,0.0,0.0
2024-05-30 12:41:00-04:00,146.76499938964844,146.76499938964844,146.76499938964844,146.76499938964844,117,0.0,0.0
2024-05-30 12:42:00-04:00,146.9199981689453,146.9199981689453,146.9199981689453,146.9199981689453,340,0.0,0.0
2024-05-30 12:43:00-04:00,146.75999450683594,146.75999450683594,146.7550048828125,146.7550048828125,541,0.0,0.0
2024-05-30 12:45:00-04:00,146.80999755859375,146.82000732421875,146.80999755859375,146.82000732421875,769,0.0,0.0
2024-05-30 12:46:00-04:00,146.77000427246094,146.77000427246094,146.77000427246094,146.77000427246094,221,0.0,0.0
2024-05-30 12:47:00-04:00,146.64999389648438,146.6999969482422,146.5500030517578,146.6501007080078,3067,0.0,0.0
2024-05-30 12:48:00-04:00,146.6999969482422,146.6999969482422,146.68499755859375,146.68499755859375,607,0.0,0.0
2024-05-30 12:55:00-04:00,146.6649932861328,146.6649932861328,146.6649932861328,146.6649932861328,124,0.0,0.0
2024-05-30 12:56:00-04:00,146.6649932861328,146.6649932861328,146.5399932861328,146.5500030517578,1211,0.0,0.0
2024-05-30 12:57:00-04:00,146.5500030517578,146.5500030517578,146.52999877929688,146.52999877929688,450,0.0,0.0
2024-05-30 12:59:00-04:00,146.61700439453125,146.61700439453125,146.58999633789062,146.58999633789062,599,0.0,0.0
2024-05-30 13:01:00-04:00,146.58999633789062,146.58999633789062,146.5850067138672,146.5850067138672,1820,0.0,0.0
2024-05-30 13:02:00-04:00,146.5850067138672,146.5850067138672,146.4600067138672,146.4600067138672,1254,0.0,0.0
2024-05-30 13:06:00-04:00,146.52999877929688,146.52999877929688,146.46499633789062,146.49000549316406,2141,0.0,0.0
2024-05-30 13:11:00-04:00,146.48500061035156,146.49000549316406,146.48500061035156,146.49000549316406,324,0.0,0.0
2024-05-30 13:12:00-04:00,146.49000549316406,146.5540008544922,146.49000549316406,146.49000549316406,510,0.0,0.0
2024-05-30 13:13:00-04:00,146.49000549316406,146.49000549316406,146.49000549316406,146.49000549316406,379,0.0,0.0
2024-05-30 13:14:00-04:00,146.49000549316406,146.5570068359375,146.4499969482422,146.5570068359375,1205,0.0,0.0
2024-05-30 13:16:00-04:00,146.47000122070312,146.52000427246094,146.39999389648438,146.39999389648438,3922,0.0,0.0
2024-05-30 13:17:00-04:00,146.4250030517578,146.4250030517578,146.3249969482422,146.3300018310547,2450,0.0,0.0
2024-05-30 13:18:00-04:00,146.35499572753906,146.44000244140625,146.35000610351562,146.35000610351562,1638,0.0,0.0
2024-05-30 13:19:00-04:00,146.43499755859375,146.61000061035156,146.43499755859375,146.61000061035156,775,0.0,0.0
2024-05-30 13:21:00-04:00,146.47000122070312,146.47000122070312,146.47000122070312,146.47000122070312,125,0.0,0.0
2024-05-30 13:22:00-04:00,146.4149932861328,146.44000244140625,146.4149932861328,146.44000244140625,677,0.0,0.0
2024-05-30 13:23:00-04:00,146.44000244140625,146.44000244140625,146.39500427246094,146.39500427246094,509,0.0,0.0
2024-05-30 13:24:00-04:00,146.47000122070312,146.47000122070312,146.47000122070312,146.47000122070312,406,0.0,0.0
2024-05-30 13:26:00-04:00,146.50999450683594,146.50999450683594,146.5,146.5,796,0.0,0.0
2024-05-30 13:27:00-04:00,146.4949951171875,146.4949951171875,146.38999938964844,146.43499755859375,1590,0.0,0.0
2024-05-30 13:28:00-04:00,146.3800048828125,146.3800048828125,146.3800048828125,146.3800048828125,428,0.0,0.0
2024-05-30 13:29:00-04:00,146.38999938964844,146.5749969482422,146.38499450683594,146.5749969482422,1811,0.0,0.0
2024-05-30 13:30:00-04:00,146.67999267578125,146.9199981689453,146.6199951171875,146.91000366210938,4336,0.0,0.0
2024-05-30 13:35:00-04:00,146.89999389648438,146.89999389648438,146.8000030517578,146.82000732421875,883,0.0,0.0
2024-05-30 13:36:00-04:00,146.7949981689453,146.7949981689453,146.7949981689453,146.7949981689453,265,0.0,0.0
2024-05-30 13:39:00-04:00,146.9199981689453,146.9199981689453,146.88999938964844,146.89999389648438,1151,0.0,0.0
2024-05-30 13:40:00-04:00,146.9779052734375,146.9779052734375,146.86000061035156,146.86000061035156,534,0.0,0.0
2024-05-30 13:45:00-04:00,146.8699951171875,146.8699951171875,146.8699951171875,146.8699951171875,153,0.0,0.0
2024-05-30 13:46:00-04:00,146.8000030517578,146.82000732421875,146.72999572753906,146.75,1608,0.0,0.0
2024-05-30 13:47:00-04:00,146.71499633789062,146.71499633789062,146.64999389648438,146.66000366210938,1435,0.0,0.0
2024-05-30 13:50:00-04:00,146.55999755859375,146.7899932861328,146.52999877929688,146.7899932861328,805,0.0,0.0
2024-05-30 13:51:00-04:00,146.52499389648438,146.52499389648438,146.52499389648438,146.52499389648438,160,0.0,0.0
2024-05-30 13:52:00-04:00,146.5,146.60499572753906,146.5,146.60499572753906,458,0.0,0.0
2024-05-30 13:53:00-04:00,146.5,146.5,146.5,146.5,109,0.0,0.0
2024-05-30 13:54:00-04:00,146.50999450683594,146.52000427246094,146.5,146.52000427246094,444,0.0,0.0
2024-05-30 13:55:00-04:00,146.56500244140625,146.56500244140625,146.56500244140625,146.56500244140625,335,0.0,0.0
2024-05-30 13:57:00-04:00,146.5,146.69000244140625,146.4499969482422,146.69000244140625,997,0.0,0.0
2024-05-30 13:59:00-04:00,146.4499969482422,146.52999877929688,146.44000244140625,146.5,3841,0.0,0.0
2024-05-30 14:00:00-04:00,146.4550018310547,146.4550018310547,146.4550018310547,146.4550018310547,113,0.0,0.0
2024-05-30 14:02:00-04:00,146.38999938964844,146.42999267578125,146.3800048828125,146.42999267578125,1625,0.0,0.0
2024-05-30 14:06:00-04:00,146.375,146.4199981689453,146.375,146.4199981689453,810,0.0,0.0
2024-05-30 14:08:00-04:00,146.33999633789062,146.3800048828125,146.33999633789062,146.3800048828125,1193,0.0,0.0
2024-05-30 14:09:00-04:00,146.4199981689453,146.4199981689453,146.4199981689453,146.4199981689453,602,0.0,0.0
2024-05-30 14:10:00-04:00,146.49000549316406,146.5,146.4600067138672,146.47000122070312,879,0.0,0.0
2024-05-30 14:11:00-04:00,146.5,146.5,146.5,146.5,461,0.0,0.0
2024-05-30 14:15:00-04:00,146.5,146.5,146.5,146.5,542,0.0,0.0
2024-05-30 14:16:00-04:00,146.44000244140625,146.49000549316406,146.3800048828125,146.3800048828125,2323,0.0,0.0
2024-05-30 14:19:00-04:00,146.47999572753906,146.47999572753906,146.47999572753906,146.47999572753906,234,0.0,0.0
2024-05-30 14:22:00-04:00,146.5,146.5,146.5,146.5,224,0.0,0.0
2024-05-30 14:26:00-04:00,146.5,146.5,146.43499755859375,146.43499755859375,878,0.0,0.0
2024-05-30 14:28:00-04:00,146.5,146.5449981689453,146.42999267578125,146.5449981689453,3540,0.0,0.0
2024-05-30 14:29:00-04:00,146.5399932861328,146.5800018310547,146.44000244140625,146.5800018310547,2027,0.0,0.0
2024-05-30 14:30:00-04:00,146.5,146.5,146.5,146.5,705,0.0,0.0
2024-05-30 14:31:00-04:00,146.51499938964844,146.52999877929688,146.5,146.5,843,0.0,0.0
2024-05-30 14:32:00-04:00,146.5,146.55909729003906,146.47999572753906,146.51499938964844,4473,0.0,0.0
2024-05-30 14:33:00-04:00,146.47999572753906,146.50999450683594,146.47999572753906,146.50999450683594,1930,0.0,0.0
2024-05-30 14:34:00-04:00,146.5500030517578,146.82000732421875,146.5,146.7050018310547,5018,0.0,0.0
2024-05-30 14:38:00-04:00,146.80999755859375,146.80999755859375,146.80999755859375,146.80999755859375,138,0.0,0.0
2024-05-30 14:39:00-04:00,146.73500061035156,146.8000030517578,146.73500061035156,146.8000030517578,769,0.0,0.0
2024-05-30 14:40:00-04:00,146.77000427246094,146.8249969482422,146.77000427246094,146.82000732421875,1186,0.0,0.0
2024-05-30 14:41:00-04:00,146.7949981689453,146.7949981689453,146.7949981689453,146.7949981689453,111,0.0,0.0
2024-05-30 14:42:00-04:00,146.7949981689453,146.7949981689453,146.7949981689453,146.7949981689453,1337,0.0,0.0
2024-05-30 14:43:00-04:00,146.75999450683594,146.75999450683594,146.6999969482422,146.6999969482422,1606,0.0,0.0
2024-05-30 14:46:00-04:00,146.70880126953125,146.70880126953125,146.70880126953125,146.70880126953125,465,0.0,0.0
2024-05-30 14:48:00-04:00,146.58999633789062,146.64999389648438,146.57000732421875,146.64999389648438,1812,0.0,0.0
2024-05-30 14:52:00-04:00,146.52000427246094,146.52000427246094,146.52000427246094,146.52000427246094,655,0.0,0.0
2024-05-30 14:53:00-04:00,146.49000549316406,146.49000549316406,146.4600067138672,146.4600067138672,848,0.0,0.0
2024-05-30 14:54:00-04:00,146.4600067138672,146.4600067138672,146.27999877929688,146.27999877929688,3001,0.0,0.0
2024-05-30 14:56:00-04:00,146.33999633789062,146.33999633789062,146.33999633789062,146.33999633789062,251,0.0,0.0
2024-05-30 14:57:00-04:00,146.4066925048828,146.4199981689453,146.27999877929688,146.27999877929688,3723,0.0,0.0
2024-05-30 14:58:00-04:00,146.30999755859375,146.3350067138672,146.17999267578125,146.17999267578125,1734,0.0,0.0
2024-05-30 14:59:00-04:00,146.22999572753906,146.22999572753906,146.14999389648438,146.18499755859375,2752,0.0,0.0
2024-05-30 15:00:00-04:00,146.13999938964844,146.13999938964844,146.07000732421875,146.0800018310547,1643,0.0,0.0
2024-05-30 15:01:00-04:00,146.07000732421875,146.0749969482422,146.07000732421875,146.0749969482422,1049,0.0,0.0
2024-05-30 15:02:00-04:00,146.0749969482422,146.0749969482422,146.07000732421875,146.07000732421875,956,0.0,0.0
2024-05-30 15:04:00-04:00,146.0500030517578,146.0500030517578,146.0,146.01499938964844,4053,0.0,0.0
2024-05-30 15:09:00-04:00,146.09500122070312,146.09500122070312,146.09500122070312,146.09500122070312,962,0.0,0.0
2024-05-30 15:12:00-04:00,145.97000122070312,145.97000122070312,145.97000122070312,145.97000122070312,945,0.0,0.0
2024-05-30 15:16:00-04:00,145.93499755859375,145.93499755859375,145.93499755859375,145.93499755859375,233,0.0,0.0
2024-05-30 15:17:00-04:00,145.9199981689453,145.9199981689453,145.9199981689453,145.9199981689453,357,0.0,0.0
2024-05-30 15:18:00-04:00,145.8800048828125,145.8800048828125,145.8699951171875,145.8699951171875,634,0.0,0.0
2024-05-30 15:19:00-04:00,145.86000061035156,145.86000061035156,145.86000061035156,145.86000061035156,422,0.0,0.0
2024-05-30 15:20:00-04:00,145.9199981689453,145.9199981689453,145.75999450683594,145.89999389648438,4520,0.0,0.0
2024-05-30 15:21:00-04:00,145.81500244140625,145.89999389648438,145.81500244140625,145.86500549316406,2349,0.0,0.0
2024-05-30 15:22:00-04:00,145.91000366210938,145.91000366210938,145.8300018310547,145.8300018310547,1058,0.0,0.0
2024-05-30 15:26:00-04:00,145.85000610351562,145.85000610351562,145.77000427246094,145.77000427246094,1632,0.0,0.0
2024-05-30 15:29:00-04:00,145.80999755859375,145.80999755859375,145.80999755859375,145.80999755859375,393,0.0,0.0
2024-05-30 15:30:00-04:00,145.8800048828125,145.89999389648438,145.84500122070312,145.89999389648438,1079,0.0,0.0
2024-05-30 15:31:00-04:00,145.8800048828125,145.8800048828125,145.8699951171875,145.8699951171875,940,0.0,0.0
2024-05-30 15:32:00-04:00,145.86000061035156,145.86000061035156,145.8300018310547,145.8300018310547,423,0.0,0.0
2024-05-30 15:33:00-04:00,145.82000732421875,145.82000732421875,145.82000732421875,145.82000732421875,297,0.0,0.0
2024-05-30 15:35:00-04:00,145.83999633789062,145.83999633789062,145.8000030517578,145.8000030517578,1727,0.0,0.0
2024-05-30 15:36:00-04:00,145.8800048828125,145.8800048828125,145.8000030517578,145.8000030517578,1513,0.0,0.0
2024-05-30 15:39:00-04:00,145.77000427246094,145.77000427246094,145.75999450683594,145.77000427246094,1029,0.0,0.0
2024-05-30 15:41:00-04:00,145.80999755859375,145.80999755859375,145.80999755859375,145.80999755859375,1606,0.0,0.0
2024-05-30 15:43:00-04:00,145.75999450683594,145.75999450683594,145.75999450683594,145.75999450683594,393,0.0,0.0
2024-05-30 15:45:00-04:00,145.72999572753906,145.72999572753906,145.67999267578125,145.67999267578125,792,0.0,0.0
2024-05-30 15:48:00-04:00,145.64999389648438,145.64999389648438,145.64999389648438,145.64999389648438,1057,0.0,0.0
2024-05-30 15:49:00-04:00,145.61000061035156,145.61000061035156,145.58999633789062,145.58999633789062,1127,0.0,0.0
2024-05-30 15:51:00-04:00,145.60000610351562,145.6300048828125,145.60000610351562,145.6300048828125,1415,0.0,0.0
2024-05-30 15:52:00-04:00,145.61500549316406,145.61500549316406,145.61500549316406,145.61500549316406,758,0.0,0.0
2024-05-30 15:53:00-04:00,145.55999755859375,145.55999755859375,145.55999755859375,145.55999755859375,441,0.0,0.0
2024-05-30 15:54:00-04:00,145.66000366210938,145.75,145.66000366210938,145.75,2043,0.0,0.0
2024-05-30 15:55:00-04:00,145.8300018310547,146.0688934326172,145.80999755859375,146.02999877929688,10492,0.0,0.0
2024-05-30 15:56:00-04:00,146.01499938964844,146.01499938964844,145.8699951171875,145.8699951171875,2389,0.0,0.0
2024-05-30 15:57:00-04:00,145.97999572753906,145.97999572753906,145.9600067138672,145.97000122070312,2609,0.0,0.0
2024-05-30 15:58:00-04:00,146.0,146.0500030517578,146.0,146.02000427246094,5338,0.0,0.0
2024-05-30 15:59:00-04:00,146.03500366210938,146.1699981689453,146.01699829101562,146.1199951171875,13438,0.0,0.0
2024-05-31 09:30:00-04:00,146.08999633789062,146.41000366210938,146.08999633789062,146.41000366210938,1285,0.0,0.0
2024-05-31 09:39:00-04:00,146.27000427246094,146.27000427246094,146.27000427246094,146.27000427246094,551,0.0,0.0
2024-05-31 09:44:00-04:00,146.64999389648438,147.02000427246094,146.64999389648438,147.02000427246094,391,0.0,0.0
2024-05-31 09:49:00-04:00,147.01499938964844,147.01499938964844,147.01499938964844,147.01499938964844,478,0.0,0.0
2024-05-31 10:00:00-04:00,146.69500732421875,146.69500732421875,146.69500732421875,146.69500732421875,682,0.0,0.0
2024-05-31 10:01:00-04:00,146.6999969482422,146.6999969482422,146.6999969482422,146.6999969482422,101,0.0,0.0
2024-05-31 10:02:00-04:00,146.7050018310547,146.72000122070312,146.7050018310547,146.72000122070312,941,0.0,0.0
2024-05-31 10:04:00-04:00,146.7449951171875,146.7449951171875,146.7449951171875,146.7449951171875,237,0.0,0.0
2024-05-31 10:05:00-04:00,146.60000610351562,146.61000061035156,146.60000610351562,146.61000061035156,1829,0.0,0.0
2024-05-31 10:08:00-04:00,146.5399932861328,146.5399932861328,146.5399932861328,146.5399932861328,242,0.0,0.0
2024-05-31 10:10:00-04:00,146.38999938964844,146.60000610351562,146.38999938964844,146.60000610351562,544,0.0,0.0
2024-05-31 10:11:00-04:00,146.58999633789062,146.58999633789062,146.58999633789062,146.58999633789062,1247,0.0,0.0
2024-05-31 10:17:00-04:00,146.63999938964844,146.63999938964844,146.63999938964844,146.63999938964844,301,0.0,0.0
2024-05-31 10:18:00-04:00,146.6199951171875,146.6199951171875,146.6199951171875,146.6199951171875,448,0.0,0.0
2024-05-31 10:24:00-04:00,146.77999877929688,146.9051055908203,146.75,146.9051055908203,705,0.0,0.0
2024-05-31 10:29:00-04:00,146.9062957763672,146.9062957763672,146.9062957763672,146.9062957763672,466,0.0,0.0
2024-05-31 10:32:00-04:00,146.77999877929688,146.77999877929688,146.77999877929688,146.77999877929688,129,0.0,0.0
2024-05-31 10:34:00-04:00,146.77999877929688,146.77999877929688,146.77999877929688,146.77999877929688,214,0.0,0.0
2024-05-31 10:35:00-04:00,146.77999877929688,146.77999877929688,146.77560424804688,146.77560424804688,502,0.0,0.0
2024-05-31 10:38:00-04:00,146.80999755859375,146.80999755859375,146.80999755859375,146.80999755859375,224,0.0,0.0
2024-05-31 10:39:00-04:00,146.81500244140625,146.81500244140625,146.7100067138672,146.74000549316406,3255,0.0,0.0
2024-05-31 10:42:00-04:00,146.52000427246094,146.52000427246094,146.52000427246094,146.52000427246094,276,0.0,0.0
2024-05-31 10:45:00-04:00,146.5399932861328,146.5399932861328,146.5399932861328,146.5399932861328,368,0.0,0.0
2024-05-31 10:47:00-04:00,146.5399932861328,146.5399932861328,146.5399932861328,146.5399932861328,180,0.0,0.0
2024-05-31 10:49:00-04:00,146.52999877929688,146.52999877929688,146.52999877929688,146.52999877929688,327,0.0,0.0
2024-05-31 10:56:00-04:00,146.51499938964844,146.51499938964844,146.24000549316406,146.24000549316406,3145,0.0,0.0
2024-05-31 11:08:00-04:00,146.30499267578125,146.30499267578125,146.30499267578125,146.30499267578125,138,0.0,0.0
2024-05-31 11:09:00-04:00,146.28329467773438,146.3300018310547,146.22999572753906,146.22999572753906,3375,0.0,0.0
2024-05-31 11:11:00-04:00,146.25999450683594,146.25999450683594,146.25999450683594,146.25999450683594,306,0.0,0.0
2024-05-31 11:12:00-04:00,146.36000061035156,146.3699951171875,146.36000061035156,146.3699951171875,202,0.0,0.0
2024-05-31 11:13:00-04:00,146.37249755859375,146.37750244140625,146.25,146.25,490,0.0,0.0
2024-05-31 11:14:00-04:00,146.3699951171875,146.42999267578125,146.32000732421875,146.32000732421875,3783,0.0,0.0
2024-05-31 11:15:00-04:00,146.52499389648438,146.53750610351562,146.38499450683594,146.38499450683594,766,0.0,0.0
2024-05-31 11:16:00-04:00,146.52499389648438,146.52499389648438,146.39500427246094,146.4149932861328,628,0.0,0.0
2024-05-31 11:17:00-04:00,146.52999877929688,146.52999877929688,146.41000366210938,146.52999877929688,805,0.0,0.0
2024-05-31 11:18:00-04:00,146.4250030517578,146.5225067138672,146.4149932861328,146.44500732421875,614,0.0,0.0
2024-05-31 11:19:00-04:00,146.47000122070312,146.47000122070312,146.41000366210938,146.41000366210938,1280,0.0,0.0
2024-05-31 11:23:00-04:00,146.39999389648438,146.44500732421875,146.39999389648438,146.44500732421875,241,0.0,0.0
2024-05-31 11:24:00-04:00,146.44500732421875,146.44500732421875,146.44500732421875,146.44500732421875,520,0.0,0.0
2024-05-31 11:25:00-04:00,146.38999938964844,146.38999938964844,146.3699951171875,146.3699951171875,1127,0.0,0.0
2024-05-31 11:28:00-04:00,146.27000427246094,146.2899932861328,146.25,146.2899932861328,560,0.0,0.0
2024-05-31 11:31:00-04:00,146.2100067138672,146.2100067138672,146.02000427246094,146.02000427246094,1305,0.0,0.0
2024-05-31 11:32:00-04:00,146.02499389648438,146.02499389648438,146.02499389648438,146.02499389648438,627,0.0,0.0
2024-05-31 11:34:00-04:00,146.14999389648438,146.14999389648438,146.0749969482422,146.10000610351562,1499,0.0,0.0
2024-05-31 11:38:00-04:00,146.0500030517578,146.0500030517578,145.99000549316406,146.0,1880,0.0,0.0
2024-05-31 11:41:00-04:00,145.99000549316406,145.99000549316406,145.99000549316406,145.99000549316406,390,0.0,0.0
2024-05-31 11:48:00-04:00,146.15750122070312,146.16250610351562,146.15249633789062,146.15249633789062,726,0.0,0.0
2024-05-31 11:51:00-04:00,146.13999938964844,146.13999938964844,146.0800018310547,146.0800018310547,386,0.0,0.0
2024-05-31 11:52:00-04:00,146.20050048828125,146.20050048828125,146.20050048828125,146.20050048828125,443,0.0,0.0
2024-05-31 11:54:00-04:00,146.125,146.15499877929688,146.125,146.15499877929688,742,0.0,0.0
2024-05-31 11:55:00-04:00,146.0800018310547,146.1199951171875,146.0800018310547,146.1199951171875,1300,0.0,0.0
2024-05-31 11:59:00-04:00,146.18499755859375,146.1999969482422,146.18499755859375,146.18499755859375,961,0.0,0.0
2024-05-31 12:01:00-04:00,146.10000610351562,146.10000610351562,146.10000610351562,146.10000610351562,662,0.0,0.0
2024-05-31 12:07:00-04:00,146.14500427246094,146.14500427246094,146.14500427246094,146.14500427246094,268,0.0,0.0
2024-05-31 12:11:00-04:00,146.16000366210938,146.16000366210938,146.0800018310547,146.0800018310547,1905,0.0,0.0
2024-05-31 12:16:00-04:00,146.0800018310547,146.0800018310547,146.0800018310547,146.0800018310547,424,0.0,0.0
2024-05-31 12:17:00-04:00,146.07000732421875,146.0800018310547,145.97999572753906,145.97999572753906,1621,0.0,0.0
2024-05-31 12:19:00-04:00,146.0050048828125,146.0050048828125,146.0050048828125,146.0050048828125,292,0.0,0.0
2024-05-31 12:22:00-04:00,145.97999572753906,145.97999572753906,145.97999572753906,145.97999572753906,332,0.0,0.0
2024-05-31 12:25:00-04:00,145.99229431152344,145.9949951171875,145.99229431152344,145.9949951171875,459,0.0,0.0
2024-05-31 12:26:00-04:00,145.9949951171875,145.9949951171875,145.9949951171875,145.9949951171875,378,0.0,0.0
2024-05-31 12:27:00-04:00,145.9949951171875,145.9949951171875,145.9949951171875,145.9949951171875,160,0.0,0.0
2024-05-31 12:28:00-04:00,145.9949951171875,145.9949951171875,145.9949951171875,145.9949951171875,735,0.0,0.0
2024-05-31 12:29:00-04:00,145.9499969482422,145.97999572753906,145.9199981689453,145.9199981689453,1670,0.0,0.0
2024-05-31 12:35:00-04:00,145.972900390625,145.972900390625,145.972900390625,145.972900390625,1848,0.0,0.0
2024-05-31 12:36:00-04:00,145.99000549316406,146.1300048828125,145.9550018310547,146.1300048828125,5247,0.0,0.0
2024-05-31 12:39:00-04:00,146.41000366210938,146.41000366210938,146.41000366210938,146.41000366210938,327,0.0,0.0
2024-05-31 12:45:00-04:00,146.47000122070312,146.47000122070312,146.47000122070312,146.47000122070312,634,0.0,0.0
2024-05-31 12:48:00-04:00,146.75999450683594,146.75999450683594,146.75999450683594,146.75999450683594,394,0.0,0.0
2024-05-31 12:56:00-04:00,146.7550048828125,146.7550048828125,146.64999389648438,146.72999572753906,2029,0.0,0.0
2024-05-31 12:57:00-04:00,146.74000549316406,146.74000549316406,146.74000549316406,146.74000549316406,264,0.0,0.0
2024-05-31 13:00:00-04:00,146.6199951171875,146.6199951171875,146.5800018310547,146.5800018310547,681,0.0,0.0
2024-05-31 13:06:00-04:00,146.6300048828125,146.6300048828125,146.6300048828125,146.6300048828125,515,0.0,0.0
2024-05-31 13:12:00-04:00,146.7082061767578,146.7082061767578,146.64500427246094,146.64500427246094,256,0.0,0.0
2024-05-31 13:14:00-04:00,146.5800018310547,146.5800018310547,146.55999755859375,146.55999755859375,1749,0.0,0.0
2024-05-31 13:17:00-04:00,146.48719787597656,146.48719787597656,146.48719787597656,146.48719787597656,2727,0.0,0.0
2024-05-31 13:18:00-04:00,146.5800018310547,146.5800018310547,146.5800018310547,146.5800018310547,430,0.0,0.0
2024-05-31 13:24:00-04:00,146.5500030517578,146.5500030517578,146.5500030517578,146.5500030517578,167,0.0,0.0
2024-05-31 13:26:00-04:00,146.5500030517578,146.5500030517578,146.5500030517578,146.5500030517578,186,0.0,0.0
2024-05-31 13:29:00-04:00,146.57000732421875,146.61000061035156,146.57000732421875,146.61000061035156,2259,0.0,0.0
2024-05-31 13:30:00-04:00,146.61000061035156,146.61000061035156,146.57000732421875,146.60499572753906,821,0.0,0.0
2024-05-31 13:35:00-04:00,146.61000061035156,146.61000061035156,146.60000610351562,146.60000610351562,524,0.0,0.0
2024-05-31 13:40:00-04:00,146.60499572753906,146.60499572753906,146.60499572753906,146.60499572753906,325,0.0,0.0
2024-05-31 13:43:00-04:00,146.5,146.5,146.47000122070312,146.47000122070312,969,0.0,0.0
2024-05-31 13:49:00-04:00,146.5500030517578,146.5500030517578,146.5500030517578,146.5500030517578,109,0.0,0.0
2024-05-31 13:51:00-04:00,146.55499267578125,146.55499267578125,146.55499267578125,146.55499267578125,755,0.0,0.0
2024-05-31 13:55:00-04:00,146.5500030517578,146.5500030517578,146.5500030517578,146.5500030517578,310,0.0,0.0
2024-05-31 14:00:00-04:00,146.47000122070312,146.47000122070312,146.47000122070312,146.47000122070312,712,0.0,0.0
2024-05-31 14:05:00-04:00,146.52499389648438,146.52499389648438,146.52499389648438,146.52499389648438,468,0.0,0.0
2024-05-31 14:07:00-04:00,146.5050048828125,146.5050048828125,146.5050048828125,146.5050048828125,299,0.0,0.0
2024-05-31 14:08:00-04:00,146.58990478515625,146.58990478515625,146.58990478515625,146.58990478515625,617,0.0,0.0
2024-05-31 14:12:00-04:00,146.51499938964844,146.51499938964844,146.51499938964844,146.51499938964844,269,0.0,0.0
2024-05-31 14:13:00-04:00,146.5800018310547,146.65499877929688,146.51499938964844,146.65499877929688,2763,0.0,0.0
2024-05-31 14:14:00-04:00,146.6300048828125,146.6300048828125,146.6300048828125,146.6300048828125,419,0.0,0.0
2024-05-31 14:20:00-04:00,146.63999938964844,146.63999938964844,146.63999938964844,146.63999938964844,290,0.0,0.0
2024-05-31 14:21:00-04:00,146.63999938964844,146.63999938964844,146.58999633789062,146.58999633789062,749,0.0,0.0
2024-05-31 14:25:00-04:00,146.5399932861328,146.5399932861328,146.49000549316406,146.49000549316406,1138,0.0,0.0
2024-05-31 14:30:00-04:00,146.52999877929688,146.52999877929688,146.52999877929688,146.52999877929688,815,0.0,0.0
2024-05-31 14:34:00-04:00,146.5500030517578,146.57000732421875,146.5500030517578,146.57000732421875,409,0.0,0.0
2024-05-31 14:36:00-04:00,146.5500030517578,146.5500030517578,146.5500030517578,146.5500030517578,496,0.0,0.0
2024-05-31 14:39:00-04:00,146.61000061035156,146.61000061035156,146.61000061035156,146.61000061035156,618,0.0,0.0
2024-05-31 14:44:00-04:00,146.5399932861328,146.5399932861328,146.5399932861328,146.5399932861328,816,0.0,0.0
2024-05-31 14:46:00-04:00,146.5800018310547,146.5800018310547,146.5800018310547,146.5800018310547,318,0.0,0.0
2024-05-31 14:50:00-04:00,146.57000732421875,146.8800048828125,146.57000732421875,146.8800048828125,2297,0.0,0.0
2024-05-31 14:51:00-04:00,146.88999938964844,146.88999938964844,146.88999938964844,146.88999938964844,260,0.0,0.0
2024-05-31 14:54:00-04:00,146.82000732421875,146.82000732421875,146.82000732421875,146.82000732421875,590,0.0,0.0
2024-05-31 14:55:00-04:00,146.8300018310547,146.8300018310547,146.8300018310547,146.8300018310547,111,0.0,0.0
2024-05-31 14:56:00-04:00,146.80999755859375,146.80999755859375,146.80999755859375,146.80999755859375,614,0.0,0.0
2024-05-31 15:02:00-04:00,146.9199981689453,146.94000244140625,146.91000366210938,146.91000366210938,1342,0.0,0.0
2024-05-31 15:05:00-04:00,147.0500030517578,147.0500030517578,147.0500030517578,147.0500030517578,204,0.0,0.0
2024-05-31 15:06:00-04:00,147.0500030517578,147.0500030517578,147.0500030517578,147.0500030517578,897,0.0,0.0
2024-05-31 15:07:00-04:00,146.97000122070312,146.97000122070312,146.97000122070312,146.97000122070312,150,0.0,0.0
2024-05-31 15:08:00-04:00,147.00999450683594,147.00999450683594,147.00999450683594,147.00999450683594,323,0.0,0.0
2024-05-31 15:09:00-04:00,147.0,147.0,147.0,147.0,611,0.0,0.0
2024-05-31 15:11:00-04:00,146.96499633789062,146.96499633789062,146.96499633789062,146.96499633789062,537,0.0,0.0
2024-05-31 15:17:00-04:00,146.96499633789062,146.96499633789062,146.96499633789062,146.96499633789062,187,0.0,0.0
2024-05-31 15:18:00-04:00,146.9199981689453,146.9550018310547,146.9199981689453,146.9550018310547,889,0.0,0.0
2024-05-31 15:20:00-04:00,146.72999572753906,146.72999572753906,146.72999572753906,146.72999572753906,346,0.0,0.0
2024-05-31 15:22:00-04:00,146.80999755859375,146.91000366210938,146.80999755859375,146.91000366210938,1319,0.0,0.0
2024-05-31 15:24:00-04:00,146.89219665527344,146.89219665527344,146.89219665527344,146.89219665527344,266,0.0,0.0
2024-05-31 15:25:00-04:00,146.9600067138672,146.97999572753906,146.9600067138672,146.97999572753906,1222,0.0,0.0
2024-05-31 15:26:00-04:00,147.02000427246094,147.02000427246094,147.02000427246094,147.02000427246094,225,0.0,0.0
2024-05-31 15:28:00-04:00,147.0500030517578,147.0500030517578,147.0500030517578,147.0500030517578,177,0.0,0.0
2024-05-31 15:29:00-04:00,146.97999572753906,146.97999572753906,146.97999572753906,146.97999572753906,808,0.0,0.0
2024-05-31 15:31:00-04:00,147.00999450683594,147.00999450683594,147.00999450683594,147.00999450683594,868,0.0,0.0
2024-05-31 15:33:00-04:00,147.1125030517578,147.1125030517578,147.1125030517578,147.1125030517578,114,0.0,0.0
2024-05-31 15:34:00-04:00,147.11000061035156,147.11000061035156,147.11000061035156,147.11000061035156,414,0.0,0.0
2024-05-31 15:35:00-04:00,147.0399932861328,147.0399932861328,147.0399932861328,147.0399932861328,263,0.0,0.0
2024-05-31 15:36:00-04:00,147.02999877929688,147.03500366210938,147.02000427246094,147.03500366210938,1078,0.0,0.0
2024-05-31 15:37:00-04:00,147.02999877929688,147.0399932861328,146.97500610351562,147.0,1525,0.0,0.0
2024-05-31 15:39:00-04:00,146.91000366210938,146.91000366210938,146.91000366210938,146.91000366210938,242,0.0,0.0
2024-05-31 15:40:00-04:00,146.91000366210938,146.97999572753906,146.91000366210938,146.97999572753906,1589,0.0,0.0
2024-05-31 15:42:00-04:00,147.05499267578125,147.05499267578125,147.05499267578125,147.05499267578125,200,0.0,0.0
2024-05-31 15:43:00-04:00,147.05999755859375,147.10000610351562,147.05999755859375,147.05999755859375,1112,0.0,0.0
2024-05-31 15:44:00-04:00,147.17999267578125,147.1999969482422,147.17999267578125,147.1999969482422,643,0.0,0.0
2024-05-31 15:45:00-04:00,147.1999969482422,147.1999969482422,147.1999969482422,147.1999969482422,141,0.0,0.0
2024-05-31 15:46:00-04:00,147.17750549316406,147.17750549316406,147.1199951171875,147.13999938964844,939,0.0,0.0
2024-05-31 15:47:00-04:00,147.19000244140625,147.22999572753906,147.13999938964844,147.22999572753906,2045,0.0,0.0
2024-05-31 15:48:00-04:00,147.19000244140625,147.1999969482422,147.17999267578125,147.18499755859375,922,0.0,0.0
2024-05-31 15:49:00-04:00,147.25999450683594,147.27000427246094,147.1999969482422,147.1999969482422,1612,0.0,0.0
2024-05-31 15:50:00-04:00,147.1999969482422,147.22999572753906,147.17999267578125,147.19500732421875,1492,0.0,0.0
2024-05-31 15:51:00-04:00,147.22999572753906,147.3000030517578,147.19000244140625,147.24000549316406,3784,0.0,0.0
2024-05-31 15:52:00-04:00,147.22999572753906,147.33999633789062,147.22999572753906,147.33999633789062,1760,0.0,0.0
2024-05-31 15:53:00-04:00,147.39999389648438,147.47000122070312,147.39999389648438,147.47000122070312,1278,0.0,0.0
2024-05-31 15:54:00-04:00,147.4199981689453,147.47000122070312,147.4199981689453,147.47000122070312,1206,0.0,0.0
2024-05-31 15:55:00-04:00,147.44000244140625,147.52000427246094,147.39999389648438,147.49000549316406,7131,0.0,0.0
2024-05-31 15:56:00-04:00,147.49000549316406,147.64500427246094,147.49000549316406,147.61000061035156,2233,0.0,0.0
2024-05-31 15:57:00-04:00,147.61000061035156,147.6999969482422,147.60000610351562,147.60000610351562,3139,0.0,0.0
2024-05-31 15:58:00-04:00,147.52999877929688,147.61000061035156,147.52999877929688,147.61000061035156,3186,0.0,0.0
2024-05-31 15:59:00-04:00,147.60000610351562,147.8300018310547,147.60000610351562,147.63999938964844,13056,0.0,0.0
