Datetime,Open,High,Low,Close,Volume,Dividends,Stock Splits
2025-04-11 09:30:00-04:00,140.8699951171875,140.8699951171875,140.8699951171875,140.8699951171875,2545,0.0,0.0
2025-04-11 09:32:00-04:00,140.50999450683594,140.50999450683594,140.50999450683594,140.50999450683594,563,0.0,0.0
2025-04-11 09:35:00-04:00,141.7100067138672,141.7100067138672,140.80499267578125,140.83250427246094,1247,0.0,0.0
2025-04-11 09:44:00-04:00,140.83999633789062,141.40499877929688,140.83999633789062,141.07000732421875,632,0.0,0.0
2025-04-11 09:45:00-04:00,141.88999938964844,141.88999938964844,141.88999938964844,141.88999938964844,217,0.0,0.0
2025-04-11 09:47:00-04:00,141.88999938964844,141.88999938964844,141.88999938964844,141.88999938964844,232,0.0,0.0
2025-04-11 09:48:00-04:00,140.86000061035156,140.86000061035156,140.86000061035156,140.86000061035156,613,0.0,0.0
2025-04-11 09:49:00-04:00,141.68499755859375,141.68499755859375,141.68499755859375,141.68499755859375,405,0.0,0.0
2025-04-11 09:50:00-04:00,140.8699951171875,140.8699951171875,140.85000610351562,140.85000610351562,582,0.0,0.0
2025-04-11 09:57:00-04:00,141.3800048828125,141.3800048828125,141.3800048828125,141.3800048828125,855,0.0,0.0
2025-04-11 09:58:00-04:00,140.75999450683594,140.75999450683594,140.75999450683594,140.75999450683594,542,0.0,0.0
2025-04-11 10:03:00-04:00,140.80450439453125,140.80450439453125,140.80450439453125,140.80450439453125,643,0.0,0.0
2025-04-11 10:06:00-04:00,140.92999267578125,140.92999267578125,140.92999267578125,140.92999267578125,618,0.0,0.0
2025-04-11 10:07:00-04:00,141.10499572753906,141.10499572753906,141.10499572753906,141.10499572753906,1286,0.0,0.0
2025-04-11 10:11:00-04:00,141.05999755859375,141.51499938964844,141.02999877929688,141.02999877929688,1293,0.0,0.0
2025-04-11 10:12:00-04:00,140.8800048828125,141.39999389648438,140.8800048828125,141.39999389648438,762,0.0,0.0
2025-04-11 10:13:00-04:00,141.10499572753906,141.10499572753906,141.10499572753906,141.10499572753906,552,0.0,0.0
2025-04-11 10:15:00-04:00,141.4250030517578,141.4250030517578,141.4250030517578,141.4250030517578,1296,0.0,0.0
2025-04-11 10:19:00-04:00,140.72000122070312,140.72000122070312,140.72000122070312,140.72000122070312,172,0.0,0.0
2025-04-11 10:20:00-04:00,141.2563018798828,141.2563018798828,141.2563018798828,141.2563018798828,1648,0.0,0.0
2025-04-11 10:24:00-04:00,140.5399932861328,140.5399932861328,140.5399932861328,140.5399932861328,1080,0.0,0.0
2025-04-11 10:32:00-04:00,141.0,141.17999267578125,140.72000122070312,140.72000122070312,1721,0.0,0.0
2025-04-11 10:33:00-04:00,140.41000366210938,140.8350067138672,140.41000366210938,140.8350067138672,971,0.0,0.0
2025-04-11 10:36:00-04:00,140.8350067138672,140.87338256835938,140.8350067138672,140.87338256835938,954,0.0,0.0
2025-04-11 10:39:00-04:00,141.05999755859375,141.05999755859375,140.63499450683594,140.63499450683594,719,0.0,0.0
2025-04-11 10:40:00-04:00,141.03500366210938,141.03500366210938,141.03500366210938,141.03500366210938,845,0.0,0.0
2025-04-11 10:44:00-04:00,141.35000610351562,141.35000610351562,141.35000610351562,141.35000610351562,2827,0.0,0.0
2025-04-11 10:57:00-04:00,141.17999267578125,141.17999267578125,141.17999267578125,141.17999267578125,972,0.0,0.0
2025-04-11 11:00:00-04:00,140.9949951171875,141.91000366210938,140.9949951171875,141.1875,4645,0.0,0.0
2025-04-11 11:03:00-04:00,140.75999450683594,140.75999450683594,140.50160217285156,140.50160217285156,1644,0.0,0.0
2025-04-11 11:10:00-04:00,140.51499938964844,140.51499938964844,140.51499938964844,140.51499938964844,1529,0.0,0.0
2025-04-11 11:19:00-04:00,140.25999450683594,140.25999450683594,140.25999450683594,140.25999450683594,1956,0.0,0.0
2025-04-11 11:24:00-04:00,139.73660278320312,140.05499267578125,139.73660278320312,140.05499267578125,1019,0.0,0.0
2025-04-11 11:27:00-04:00,140.11000061035156,140.1300048828125,140.11000061035156,140.1300048828125,1049,0.0,0.0
2025-04-11 11:29:00-04:00,140.5,140.5,140.5,140.5,178,0.0,0.0
2025-04-11 11:30:00-04:00,140.24000549316406,140.24000549316406,140.24000549316406,140.24000549316406,2016,0.0,0.0
2025-04-11 11:37:00-04:00,140.5800018310547,140.5800018310547,140.5800018310547,140.5800018310547,435,0.0,0.0
2025-04-11 11:38:00-04:00,140.6999969482422,140.77999877929688,140.6999969482422,140.77999877929688,401,0.0,0.0
2025-04-11 11:39:00-04:00,140.8350067138672,140.8350067138672,140.8350067138672,140.8350067138672,228,0.0,0.0
2025-04-11 11:40:00-04:00,140.8350067138672,140.8350067138672,140.8350067138672,140.8350067138672,962,0.0,0.0
2025-04-11 11:47:00-04:00,141.0500030517578,141.05999755859375,141.0500030517578,141.05999755859375,749,0.0,0.0
2025-04-11 11:52:00-04:00,141.11500549316406,141.11500549316406,141.11500549316406,141.11500549316406,203,0.0,0.0
2025-04-11 11:54:00-04:00,140.88999938964844,140.88999938964844,140.88999938964844,140.88999938964844,1806,0.0,0.0
2025-04-11 11:56:00-04:00,141.19000244140625,141.1999969482422,141.19000244140625,141.1999969482422,1331,0.0,0.0
2025-04-11 11:58:00-04:00,141.38999938964844,141.38999938964844,141.38999938964844,141.38999938964844,779,0.0,0.0
2025-04-11 12:05:00-04:00,141.7899932861328,141.7899932861328,141.68499755859375,141.68499755859375,710,0.0,0.0
2025-04-11 12:06:00-04:00,141.68499755859375,141.68499755859375,141.68499755859375,141.68499755859375,2343,0.0,0.0
2025-04-11 12:24:00-04:00,142.16000366210938,142.16000366210938,142.16000366210938,142.16000366210938,773,0.0,0.0
2025-04-11 12:28:00-04:00,142.16000366210938,142.1999969482422,142.16000366210938,142.1999969482422,1177,0.0,0.0
2025-04-11 12:33:00-04:00,142.49000549316406,142.49000549316406,142.49000549316406,142.49000549316406,159,0.0,0.0
2025-04-11 12:34:00-04:00,142.75999450683594,142.9600067138672,142.75999450683594,142.9600067138672,2034,0.0,0.0
2025-04-11 12:37:00-04:00,143.42999267578125,143.42999267578125,143.42999267578125,143.42999267578125,424,0.0,0.0
2025-04-11 12:40:00-04:00,143.11000061035156,143.11000061035156,143.11000061035156,143.11000061035156,993,0.0,0.0
2025-04-11 12:45:00-04:00,142.87550354003906,142.87550354003906,142.87550354003906,142.87550354003906,231,0.0,0.0
2025-04-11 12:46:00-04:00,143.10499572753906,143.10499572753906,143.10499572753906,143.10499572753906,747,0.0,0.0
2025-04-11 12:51:00-04:00,143.21499633789062,143.21499633789062,143.21499633789062,143.21499633789062,334,0.0,0.0
2025-04-11 12:53:00-04:00,143.21499633789062,143.21499633789062,143.21499633789062,143.21499633789062,407,0.0,0.0
2025-04-11 12:55:00-04:00,142.89999389648438,142.89999389648438,142.89999389648438,142.89999389648438,587,0.0,0.0
2025-04-11 12:56:00-04:00,143.125,143.15499877929688,143.125,143.15499877929688,1254,0.0,0.0
2025-04-11 13:01:00-04:00,142.94000244140625,143.01499938964844,142.94000244140625,143.01499938964844,397,0.0,0.0
2025-04-11 13:02:00-04:00,143.07150268554688,143.07150268554688,142.9770965576172,142.9770965576172,1262,0.0,0.0
2025-04-11 13:06:00-04:00,143.11500549316406,143.4499969482422,143.11500549316406,143.4499969482422,1175,0.0,0.0
2025-04-11 13:07:00-04:00,143.52000427246094,143.52000427246094,143.52000427246094,143.52000427246094,818,0.0,0.0
2025-04-11 13:13:00-04:00,143.02999877929688,143.02999877929688,142.94000244140625,142.94000244140625,1080,0.0,0.0
2025-04-11 13:19:00-04:00,142.83999633789062,142.83999633789062,142.83999633789062,142.83999633789062,311,0.0,0.0
2025-04-11 13:20:00-04:00,142.94000244140625,142.94000244140625,142.94000244140625,142.94000244140625,668,0.0,0.0
2025-04-11 13:21:00-04:00,143.32000732421875,143.32000732421875,143.32000732421875,143.32000732421875,1748,0.0,0.0
2025-04-11 13:27:00-04:00,143.07000732421875,143.07000732421875,143.07000732421875,143.07000732421875,391,0.0,0.0
2025-04-11 13:28:00-04:00,143.31500244140625,143.31500244140625,143.05999755859375,143.05999755859375,554,0.0,0.0
2025-04-11 13:30:00-04:00,143.25,143.25,143.25,143.25,804,0.0,0.0
2025-04-11 13:35:00-04:00,143.2550048828125,143.2550048828125,142.88999938964844,142.88999938964844,1947,0.0,0.0
2025-04-11 13:36:00-04:00,142.87249755859375,142.87249755859375,142.87249755859375,142.87249755859375,443,0.0,0.0
2025-04-11 13:37:00-04:00,142.99000549316406,143.17999267578125,142.99000549316406,143.17999267578125,948,0.0,0.0
2025-04-11 13:39:00-04:00,143.36329650878906,143.72999572753906,143.36329650878906,143.72999572753906,2537,0.0,0.0
2025-04-11 13:45:00-04:00,144.69500732421875,144.69500732421875,144.69500732421875,144.69500732421875,722,0.0,0.0
2025-04-11 13:46:00-04:00,144.6999969482422,144.6999969482422,144.6999969482422,144.6999969482422,2192,0.0,0.0
2025-04-11 13:53:00-04:00,144.7100067138672,144.7100067138672,144.7100067138672,144.7100067138672,193,0.0,0.0
2025-04-11 13:54:00-04:00,144.7100067138672,144.7100067138672,144.7100067138672,144.7100067138672,2265,0.0,0.0
2025-04-11 13:58:00-04:00,144.30999755859375,144.30999755859375,144.17999267578125,144.17999267578125,766,0.0,0.0
2025-04-11 14:00:00-04:00,144.1300048828125,144.1300048828125,144.1300048828125,144.1300048828125,641,0.0,0.0
2025-04-11 14:01:00-04:00,144.30999755859375,144.30999755859375,144.30999755859375,144.30999755859375,771,0.0,0.0
2025-04-11 14:06:00-04:00,144.05999755859375,144.13999938964844,144.02000427246094,144.02000427246094,1111,0.0,0.0
2025-04-11 14:10:00-04:00,143.8300018310547,143.8300018310547,143.35000610351562,143.35000610351562,1242,0.0,0.0
2025-04-11 14:12:00-04:00,143.94000244140625,143.94000244140625,143.94000244140625,143.94000244140625,1030,0.0,0.0
2025-04-11 14:18:00-04:00,143.74000549316406,143.74000549316406,143.74000549316406,143.74000549316406,1090,0.0,0.0
2025-04-11 14:21:00-04:00,143.5500030517578,143.5500030517578,143.5500030517578,143.5500030517578,247,0.0,0.0
2025-04-11 14:22:00-04:00,143.68499755859375,143.91000366210938,143.6699981689453,143.69500732421875,2673,0.0,0.0
2025-04-11 14:27:00-04:00,143.50999450683594,143.61000061035156,143.50999450683594,143.61000061035156,2080,0.0,0.0
2025-04-11 14:33:00-04:00,143.6199951171875,143.6199951171875,143.6199951171875,143.6199951171875,1065,0.0,0.0
2025-04-11 14:40:00-04:00,143.8800048828125,143.8800048828125,143.8800048828125,143.8800048828125,1078,0.0,0.0
2025-04-11 14:47:00-04:00,143.6999969482422,143.6999969482422,143.6999969482422,143.6999969482422,615,0.0,0.0
2025-04-11 14:48:00-04:00,143.89999389648438,143.89999389648438,143.86500549316406,143.86500549316406,1541,0.0,0.0
2025-04-11 14:50:00-04:00,143.92999267578125,143.92999267578125,143.8800048828125,143.8800048828125,1862,0.0,0.0
2025-04-11 14:52:00-04:00,143.75999450683594,143.75999450683594,143.75999450683594,143.75999450683594,906,0.0,0.0
2025-04-11 14:56:00-04:00,143.55999755859375,143.55999755859375,143.49000549316406,143.49000549316406,239,0.0,0.0
2025-04-11 14:57:00-04:00,143.52999877929688,143.52999877929688,143.52999877929688,143.52999877929688,346,0.0,0.0
2025-04-11 14:59:00-04:00,143.39999389648438,143.39999389648438,143.39999389648438,143.39999389648438,1187,0.0,0.0
2025-04-11 15:02:00-04:00,143.66000366210938,143.66000366210938,143.66000366210938,143.66000366210938,1383,0.0,0.0
2025-04-11 15:11:00-04:00,144.02000427246094,144.0500030517578,144.02000427246094,144.02999877929688,1067,0.0,0.0
2025-04-11 15:14:00-04:00,144.13999938964844,144.46859741210938,144.13999938964844,144.46859741210938,3231,0.0,0.0
2025-04-11 15:16:00-04:00,143.9199981689453,143.94500732421875,143.89999389648438,143.94000244140625,1326,0.0,0.0
2025-04-11 15:19:00-04:00,144.1300048828125,144.16000366210938,144.1300048828125,144.16000366210938,469,0.0,0.0
2025-04-11 15:20:00-04:00,144.09500122070312,144.09500122070312,144.09500122070312,144.09500122070312,693,0.0,0.0
2025-04-11 15:22:00-04:00,144.4550018310547,144.4550018310547,144.3000030517578,144.3000030517578,1241,0.0,0.0
2025-04-11 15:23:00-04:00,144.3000030517578,144.3000030517578,144.3000030517578,144.3000030517578,1424,0.0,0.0
2025-04-11 15:25:00-04:00,144.42999267578125,144.4499969482422,144.40499877929688,144.40499877929688,1319,0.0,0.0
2025-04-11 15:28:00-04:00,144.14999389648438,144.14999389648438,144.14999389648438,144.14999389648438,748,0.0,0.0
2025-04-11 15:29:00-04:00,144.13999938964844,144.13999938964844,144.0500030517578,144.0500030517578,388,0.0,0.0
2025-04-11 15:30:00-04:00,144.0800018310547,144.08999633789062,144.07749938964844,144.08999633789062,621,0.0,0.0
2025-04-11 15:31:00-04:00,144.06500244140625,144.06500244140625,144.06500244140625,144.06500244140625,747,0.0,0.0
2025-04-11 15:32:00-04:00,144.19000244140625,144.19000244140625,144.19000244140625,144.19000244140625,1615,0.0,0.0
2025-04-11 15:35:00-04:00,144.1300048828125,144.1999969482422,143.85000610351562,143.85000610351562,1356,0.0,0.0
2025-04-11 15:36:00-04:00,143.9250030517578,143.9250030517578,143.9250030517578,143.9250030517578,987,0.0,0.0
2025-04-11 15:39:00-04:00,144.10000610351562,144.10000610351562,144.10000610351562,144.10000610351562,184,0.0,0.0
2025-04-11 15:40:00-04:00,144.11500549316406,144.11500549316406,144.0850067138672,144.0850067138672,1018,0.0,0.0
2025-04-11 15:41:00-04:00,143.96499633789062,143.96499633789062,143.96499633789062,143.96499633789062,1011,0.0,0.0
2025-04-11 15:43:00-04:00,144.10499572753906,144.10499572753906,144.10499572753906,144.10499572753906,1167,0.0,0.0
2025-04-11 15:44:00-04:00,144.10000610351562,144.10000610351562,144.10000610351562,144.10000610351562,964,0.0,0.0
2025-04-11 15:46:00-04:00,143.92999267578125,143.97500610351562,143.92999267578125,143.97500610351562,1449,0.0,0.0
2025-04-11 15:48:00-04:00,143.99000549316406,143.99000549316406,143.8300018310547,143.8300018310547,1733,0.0,0.0
2025-04-11 15:49:00-04:00,143.86000061035156,143.86500549316406,143.86000061035156,143.86500549316406,1122,0.0,0.0
2025-04-11 15:50:00-04:00,143.8249969482422,143.8249969482422,143.8249969482422,143.8249969482422,1085,0.0,0.0
2025-04-11 15:51:00-04:00,144.02000427246094,144.36000061035156,144.02000427246094,144.36000061035156,3699,0.0,0.0
2025-04-11 15:52:00-04:00,144.08999633789062,144.08999633789062,144.0749969482422,144.0749969482422,1080,0.0,0.0
2025-04-11 15:53:00-04:00,144.0500030517578,144.22000122070312,143.97000122070312,144.22000122070312,3150,0.0,0.0
2025-04-11 15:54:00-04:00,144.0850067138672,144.25,144.0850067138672,144.19500732421875,1133,0.0,0.0
2025-04-11 15:55:00-04:00,144.3000030517578,144.3000030517578,144.3000030517578,144.3000030517578,306,0.0,0.0
2025-04-11 15:56:00-04:00,144.3699951171875,144.47999572753906,144.27499389648438,144.47999572753906,3227,0.0,0.0
2025-04-11 15:57:00-04:00,144.35000610351562,144.35000610351562,144.1699981689453,144.22000122070312,4436,0.0,0.0
2025-04-11 15:58:00-04:00,144.25,144.25999450683594,144.11000061035156,144.19500732421875,4191,0.0,0.0
2025-04-11 15:59:00-04:00,144.25999450683594,144.3300018310547,144.08999633789062,144.16000366210938,10015,0.0,0.0
2025-04-14 09:30:00-04:00,145.8000030517578,145.8000030517578,145.8000030517578,145.8000030517578,1703,0.0,0.0
2025-04-14 09:31:00-04:00,145.8699951171875,145.8699951171875,145.68499755859375,145.68499755859375,2088,0.0,0.0
2025-04-14 09:37:00-04:00,145.76499938964844,145.76499938964844,145.76499938964844,145.76499938964844,102,0.0,0.0
2025-04-14 09:38:00-04:00,145.72999572753906,145.75,145.72999572753906,145.72999572753906,2079,0.0,0.0
2025-04-14 09:43:00-04:00,145.72999572753906,145.72999572753906,145.72999572753906,145.72999572753906,797,0.0,0.0
2025-04-14 09:45:00-04:00,145.72999572753906,145.72999572753906,145.72999572753906,145.72999572753906,405,0.0,0.0
2025-04-14 09:47:00-04:00,145.8800048828125,145.8800048828125,145.72999572753906,145.72999572753906,481,0.0,0.0
2025-04-14 09:49:00-04:00,145.51499938964844,145.51499938964844,145.51499938964844,145.51499938964844,1033,0.0,0.0
2025-04-14 09:54:00-04:00,146.02000427246094,146.19000244140625,145.80499267578125,146.19000244140625,1837,0.0,0.0
2025-04-14 09:59:00-04:00,145.85000610351562,145.85000610351562,145.85000610351562,145.85000610351562,241,0.0,0.0
2025-04-14 10:00:00-04:00,145.85000610351562,145.85000610351562,145.85000610351562,145.85000610351562,366,0.0,0.0
2025-04-14 10:01:00-04:00,145.68499755859375,145.68499755859375,145.68499755859375,145.68499755859375,926,0.0,0.0
2025-04-14 10:06:00-04:00,145.77999877929688,145.77999877929688,145.68499755859375,145.68499755859375,1431,0.0,0.0
2025-04-14 10:09:00-04:00,145.16000366210938,145.47500610351562,145.11000061035156,145.39500427246094,1267,0.0,0.0
2025-04-14 10:10:00-04:00,145.0500030517578,145.1999969482422,145.0050048828125,145.0050048828125,1548,0.0,0.0
2025-04-14 10:13:00-04:00,145.0,145.0,145.0,145.0,436,0.0,0.0
2025-04-14 10:14:00-04:00,145.0,145.0,145.0,145.0,127,0.0,0.0
2025-04-14 10:15:00-04:00,145.0,145.0,145.0,145.0,140,0.0,0.0
2025-04-14 10:16:00-04:00,145.0,145.0,145.0,145.0,141,0.0,0.0
2025-04-14 10:17:00-04:00,144.9199981689453,144.9199981689453,144.88499450683594,144.88499450683594,381,0.0,0.0
2025-04-14 10:19:00-04:00,144.8000030517578,145.08999633789062,144.8000030517578,145.08999633789062,499,0.0,0.0
2025-04-14 10:20:00-04:00,144.86500549316406,144.86500549316406,144.86500549316406,144.86500549316406,863,0.0,0.0
2025-04-14 10:22:00-04:00,144.89999389648438,144.89999389648438,144.89999389648438,144.89999389648438,289,0.0,0.0
2025-04-14 10:23:00-04:00,145.24000549316406,145.30999755859375,145.24000549316406,145.2899932861328,4337,0.0,0.0
2025-04-14 10:24:00-04:00,145.0850067138672,145.0850067138672,145.0850067138672,145.0850067138672,105,0.0,0.0
2025-04-14 10:25:00-04:00,145.27000427246094,145.33999633789062,145.27000427246094,145.33999633789062,1102,0.0,0.0
2025-04-14 10:26:00-04:00,145.39500427246094,145.39500427246094,145.39500427246094,145.39500427246094,772,0.0,0.0
2025-04-14 10:27:00-04:00,145.5063934326172,145.5063934326172,145.5063934326172,145.5063934326172,568,0.0,0.0
2025-04-14 10:28:00-04:00,145.60000610351562,145.60000610351562,145.60000610351562,145.60000610351562,457,0.0,0.0
2025-04-14 10:30:00-04:00,145.60000610351562,145.60000610351562,145.60000610351562,145.60000610351562,437,0.0,0.0
2025-04-14 10:32:00-04:00,145.5749969482422,145.5749969482422,145.5749969482422,145.5749969482422,1980,0.0,0.0
2025-04-14 10:44:00-04:00,145.2949981689453,145.2949981689453,145.22000122070312,145.22000122070312,664,0.0,0.0
2025-04-14 10:45:00-04:00,145.3000030517578,145.47000122070312,145.22000122070312,145.47000122070312,3149,0.0,0.0
2025-04-14 10:49:00-04:00,145.7449951171875,145.7449951171875,145.7449951171875,145.7449951171875,139,0.0,0.0
2025-04-14 10:50:00-04:00,145.7449951171875,145.7449951171875,145.7449951171875,145.7449951171875,237,0.0,0.0
2025-04-14 10:51:00-04:00,145.77499389648438,145.78500366210938,145.77499389648438,145.78500366210938,467,0.0,0.0
2025-04-14 10:54:00-04:00,145.75999450683594,145.75999450683594,145.75999450683594,145.75999450683594,489,0.0,0.0
2025-04-14 10:56:00-04:00,145.7100067138672,145.7100067138672,145.7100067138672,145.7100067138672,280,0.0,0.0
2025-04-14 10:58:00-04:00,145.64999389648438,145.64999389648438,145.64999389648438,145.64999389648438,184,0.0,0.0
2025-04-14 11:00:00-04:00,145.65499877929688,145.65499877929688,145.65499877929688,145.65499877929688,136,0.0,0.0
2025-04-14 11:01:00-04:00,145.66000366210938,145.66000366210938,145.66000366210938,145.66000366210938,302,0.0,0.0
2025-04-14 11:07:00-04:00,145.65499877929688,145.65499877929688,145.65499877929688,145.65499877929688,407,0.0,0.0
2025-04-14 11:09:00-04:00,145.65499877929688,145.65499877929688,145.65499877929688,145.65499877929688,363,0.0,0.0
2025-04-14 11:15:00-04:00,145.36500549316406,145.36500549316406,145.36500549316406,145.36500549316406,735,0.0,0.0
2025-04-14 11:19:00-04:00,145.3249969482422,145.3249969482422,145.3249969482422,145.3249969482422,609,0.0,0.0
2025-04-14 11:21:00-04:00,145.4199981689453,145.6199951171875,145.3249969482422,145.6199951171875,2155,0.0,0.0
2025-04-14 11:22:00-04:00,145.64999389648438,145.64999389648438,145.64999389648438,145.64999389648438,366,0.0,0.0
2025-04-14 11:25:00-04:00,145.66000366210938,145.66000366210938,145.66000366210938,145.66000366210938,159,0.0,0.0
2025-04-14 11:26:00-04:00,145.6649932861328,145.6699981689453,145.6649932861328,145.6699981689453,809,0.0,0.0
2025-04-14 11:28:00-04:00,145.17999267578125,145.17999267578125,145.17999267578125,145.17999267578125,199,0.0,0.0
2025-04-14 11:29:00-04:00,145.2050018310547,145.2050018310547,145.1623992919922,145.1623992919922,2525,0.0,0.0
2025-04-14 11:38:00-04:00,145.21499633789062,145.21499633789062,145.21499633789062,145.21499633789062,281,0.0,0.0
2025-04-14 11:40:00-04:00,144.77999877929688,144.77999877929688,144.77999877929688,144.77999877929688,133,0.0,0.0
2025-04-14 11:41:00-04:00,144.77999877929688,144.8000030517578,144.75999450683594,144.8000030517578,827,0.0,0.0
2025-04-14 11:46:00-04:00,144.7949981689453,144.7949981689453,144.7949981689453,144.7949981689453,142,0.0,0.0
2025-04-14 11:47:00-04:00,144.5,144.5,144.5,144.5,330,0.0,0.0
2025-04-14 11:48:00-04:00,144.5500030517578,144.5500030517578,144.5500030517578,144.5500030517578,446,0.0,0.0
2025-04-14 11:50:00-04:00,144.5449981689453,144.5449981689453,144.5449981689453,144.5449981689453,132,0.0,0.0
2025-04-14 11:51:00-04:00,144.30999755859375,144.30999755859375,144.30999755859375,144.30999755859375,1130,0.0,0.0
2025-04-14 11:53:00-04:00,144.49000549316406,144.5,144.47000122070312,144.47000122070312,1565,0.0,0.0
2025-04-14 11:56:00-04:00,144.3699951171875,144.40499877929688,144.3699951171875,144.40499877929688,777,0.0,0.0
2025-04-14 11:58:00-04:00,144.58999633789062,144.58999633789062,144.375,144.375,482,0.0,0.0
2025-04-14 11:59:00-04:00,144.375,144.375,144.375,144.375,101,0.0,0.0
2025-04-14 12:00:00-04:00,144.16000366210938,144.16000366210938,144.16000366210938,144.16000366210938,180,0.0,0.0
2025-04-14 12:01:00-04:00,144.27000427246094,144.27000427246094,144.27000427246094,144.27000427246094,682,0.0,0.0
2025-04-14 12:04:00-04:00,144.1697998046875,144.4600067138672,144.1697998046875,144.4600067138672,955,0.0,0.0
2025-04-14 12:06:00-04:00,144.35000610351562,144.35000610351562,144.35000610351562,144.35000610351562,383,0.0,0.0
2025-04-14 12:10:00-04:00,144.30999755859375,144.30999755859375,144.30999755859375,144.30999755859375,205,0.0,0.0
2025-04-14 12:11:00-04:00,144.2899932861328,144.2899932861328,143.7899932861328,143.7899932861328,1375,0.0,0.0
2025-04-14 12:13:00-04:00,144.2100067138672,144.32000732421875,144.11000061035156,144.2899932861328,2092,0.0,0.0
2025-04-14 12:15:00-04:00,144.375,144.375,144.375,144.375,1171,0.0,0.0
2025-04-14 12:23:00-04:00,144.8699951171875,144.8699951171875,144.8699951171875,144.8699951171875,270,0.0,0.0
2025-04-14 12:24:00-04:00,144.85000610351562,144.85000610351562,144.84249877929688,144.84249877929688,1666,0.0,0.0
2025-04-14 12:27:00-04:00,144.89999389648438,144.89999389648438,144.89999389648438,144.89999389648438,444,0.0,0.0
2025-04-14 12:31:00-04:00,145.0800018310547,145.1490020751953,145.0800018310547,145.1490020751953,1018,0.0,0.0
2025-04-14 12:32:00-04:00,145.06500244140625,145.06500244140625,145.06500244140625,145.06500244140625,365,0.0,0.0
2025-04-14 12:34:00-04:00,145.3800048828125,145.3800048828125,145.3800048828125,145.3800048828125,234,0.0,0.0
2025-04-14 12:35:00-04:00,145.25999450683594,145.25999450683594,145.22999572753906,145.25999450683594,1097,0.0,0.0
2025-04-14 12:37:00-04:00,145.05999755859375,145.10000610351562,145.0399932861328,145.10000610351562,1319,0.0,0.0
2025-04-14 12:40:00-04:00,144.8300018310547,144.9499969482422,144.8300018310547,144.9499969482422,526,0.0,0.0
2025-04-14 12:41:00-04:00,145.02499389648438,145.02499389648438,145.02499389648438,145.02499389648438,279,0.0,0.0
2025-04-14 12:42:00-04:00,144.85000610351562,144.98500061035156,144.82000732421875,144.97000122070312,1466,0.0,0.0
2025-04-14 12:45:00-04:00,145.0449981689453,145.05499267578125,144.94000244140625,145.05499267578125,2706,0.0,0.0
2025-04-14 12:49:00-04:00,144.77999877929688,144.77999877929688,144.77999877929688,144.77999877929688,511,0.0,0.0
2025-04-14 12:53:00-04:00,144.71499633789062,144.71499633789062,144.71499633789062,144.71499633789062,464,0.0,0.0
2025-04-14 12:56:00-04:00,144.71499633789062,144.72000122070312,144.7100067138672,144.7100067138672,547,0.0,0.0
2025-04-14 13:00:00-04:00,144.77999877929688,145.0749969482422,144.77999877929688,144.99000549316406,5240,0.0,0.0
2025-04-14 13:01:00-04:00,144.75,144.75,144.75,144.75,403,0.0,0.0
2025-04-14 13:02:00-04:00,144.52000427246094,144.6999969482422,144.52000427246094,144.6999969482422,783,0.0,0.0
2025-04-14 13:03:00-04:00,144.6999969482422,144.6999969482422,144.6649932861328,144.6999969482422,1319,0.0,0.0
2025-04-14 13:05:00-04:00,144.7050018310547,144.7050018310547,144.7050018310547,144.7050018310547,217,0.0,0.0
2025-04-14 13:06:00-04:00,144.4600067138672,144.4600067138672,144.4600067138672,144.4600067138672,161,0.0,0.0
2025-04-14 13:07:00-04:00,144.46499633789062,144.46499633789062,144.46499633789062,144.46499633789062,450,0.0,0.0
2025-04-14 13:08:00-04:00,144.47500610351562,144.47500610351562,144.47500610351562,144.47500610351562,369,0.0,0.0
2025-04-14 13:12:00-04:00,144.61180114746094,144.61180114746094,144.61180114746094,144.61180114746094,505,0.0,0.0
2025-04-14 13:13:00-04:00,144.5,144.5,144.5,144.5,120,0.0,0.0
2025-04-14 13:14:00-04:00,144.49000549316406,144.49000549316406,144.49000549316406,144.49000549316406,881,0.0,0.0
2025-04-14 13:23:00-04:00,144.58999633789062,144.58999633789062,144.58999633789062,144.58999633789062,1526,0.0,0.0
2025-04-14 13:31:00-04:00,144.42999267578125,144.42999267578125,144.42999267578125,144.42999267578125,499,0.0,0.0
2025-04-14 13:33:00-04:00,144.64999389648438,144.9199981689453,144.64999389648438,144.8300018310547,2305,0.0,0.0
2025-04-14 13:34:00-04:00,144.89999389648438,144.89999389648438,144.89999389648438,144.89999389648438,120,0.0,0.0
2025-04-14 13:35:00-04:00,144.9199981689453,144.9199981689453,144.9199981689453,144.9199981689453,266,0.0,0.0
2025-04-14 13:36:00-04:00,144.7100067138672,144.7100067138672,144.7100067138672,144.7100067138672,374,0.0,0.0
2025-04-14 13:37:00-04:00,144.73500061035156,144.73500061035156,144.73500061035156,144.73500061035156,377,0.0,0.0
2025-04-14 13:39:00-04:00,144.614501953125,144.614501953125,144.614501953125,144.614501953125,1590,0.0,0.0
2025-04-14 13:47:00-04:00,144.47999572753906,144.55999755859375,144.47999572753906,144.55999755859375,1093,0.0,0.0
2025-04-14 13:52:00-04:00,144.94500732421875,144.94500732421875,144.94500732421875,144.94500732421875,175,0.0,0.0
2025-04-14 13:53:00-04:00,145.13999938964844,145.13999938964844,145.13999938964844,145.13999938964844,538,0.0,0.0
2025-04-14 13:56:00-04:00,145.11500549316406,145.11500549316406,145.11500549316406,145.11500549316406,859,0.0,0.0
2025-04-14 14:01:00-04:00,145.30999755859375,145.30999755859375,145.30999755859375,145.30999755859375,495,0.0,0.0
2025-04-14 14:05:00-04:00,145.10499572753906,145.10499572753906,145.10499572753906,145.10499572753906,422,0.0,0.0
2025-04-14 14:10:00-04:00,144.95700073242188,145.11000061035156,144.95700073242188,145.11000061035156,1147,0.0,0.0
2025-04-14 14:17:00-04:00,145.2899932861328,145.3800048828125,145.17999267578125,145.17999267578125,1310,0.0,0.0
2025-04-14 14:18:00-04:00,145.4199981689453,145.4199981689453,145.4199981689453,145.4199981689453,1208,0.0,0.0
2025-04-14 14:25:00-04:00,145.5800018310547,145.5800018310547,145.51499938964844,145.51499938964844,987,0.0,0.0
2025-04-14 14:26:00-04:00,145.50999450683594,145.50999450683594,145.50999450683594,145.50999450683594,188,0.0,0.0
2025-04-14 14:27:00-04:00,145.64500427246094,145.64500427246094,145.64500427246094,145.64500427246094,464,0.0,0.0
2025-04-14 14:28:00-04:00,145.52999877929688,145.52999877929688,145.4499969482422,145.4499969482422,684,0.0,0.0
2025-04-14 14:29:00-04:00,145.4550018310547,145.4550018310547,145.4550018310547,145.4550018310547,1251,0.0,0.0
2025-04-14 14:34:00-04:00,145.63999938964844,145.63999938964844,145.43569946289062,145.43569946289062,300,0.0,0.0
2025-04-14 14:35:00-04:00,145.6300048828125,145.6300048828125,145.6300048828125,145.6300048828125,101,0.0,0.0
2025-04-14 14:36:00-04:00,145.6300048828125,145.6300048828125,145.52999877929688,145.52999877929688,531,0.0,0.0
2025-04-14 14:37:00-04:00,145.55499267578125,145.57000732421875,145.5,145.5,952,0.0,0.0
2025-04-14 14:39:00-04:00,145.5,145.5,145.5,145.5,758,0.0,0.0
2025-04-14 14:41:00-04:00,145.60000610351562,145.60000610351562,145.60000610351562,145.60000610351562,818,0.0,0.0
2025-04-14 14:45:00-04:00,145.5399932861328,145.5399932861328,145.5399932861328,145.5399932861328,366,0.0,0.0
2025-04-14 14:46:00-04:00,145.58999633789062,145.58999633789062,145.58999633789062,145.58999633789062,186,0.0,0.0
2025-04-14 14:47:00-04:00,145.66709899902344,145.66709899902344,145.66709899902344,145.66709899902344,458,0.0,0.0
2025-04-14 14:49:00-04:00,145.5500030517578,145.5500030517578,145.5500030517578,145.5500030517578,481,0.0,0.0
2025-04-14 14:51:00-04:00,145.56500244140625,145.56500244140625,145.5500030517578,145.5500030517578,681,0.0,0.0
2025-04-14 14:52:00-04:00,145.6750030517578,145.67999267578125,145.6750030517578,145.67999267578125,1023,0.0,0.0
2025-04-14 14:53:00-04:00,145.77000427246094,145.77000427246094,145.77000427246094,145.77000427246094,147,0.0,0.0
2025-04-14 14:54:00-04:00,145.80499267578125,145.80499267578125,145.67999267578125,145.67999267578125,593,0.0,0.0
2025-04-14 14:55:00-04:00,145.67999267578125,145.67999267578125,145.60000610351562,145.60000610351562,294,0.0,0.0
2025-04-14 14:57:00-04:00,145.68499755859375,145.68499755859375,145.68499755859375,145.68499755859375,1709,0.0,0.0
2025-04-14 15:00:00-04:00,145.92990112304688,145.92999267578125,145.639404296875,145.92999267578125,820,0.0,0.0
2025-04-14 15:01:00-04:00,145.90499877929688,145.90499877929688,145.90499877929688,145.90499877929688,515,0.0,0.0
2025-04-14 15:03:00-04:00,145.77499389648438,145.77499389648438,145.77499389648438,145.77499389648438,1070,0.0,0.0
2025-04-14 15:07:00-04:00,145.78500366210938,145.78500366210938,145.78500366210938,145.78500366210938,205,0.0,0.0
2025-04-14 15:08:00-04:00,145.81520080566406,145.81520080566406,145.81520080566406,145.81520080566406,535,0.0,0.0
2025-04-14 15:10:00-04:00,145.78500366210938,145.78500366210938,145.78500366210938,145.78500366210938,155,0.0,0.0
2025-04-14 15:11:00-04:00,145.6428985595703,146.0500030517578,145.6428985595703,146.0500030517578,2268,0.0,0.0
2025-04-14 15:12:00-04:00,146.07000732421875,146.07000732421875,146.07000732421875,146.07000732421875,1190,0.0,0.0
2025-04-14 15:15:00-04:00,146.2100067138672,146.2100067138672,146.2100067138672,146.2100067138672,1012,0.0,0.0
2025-04-14 15:21:00-04:00,146.1300048828125,146.1300048828125,146.1300048828125,146.1300048828125,402,0.0,0.0
2025-04-14 15:22:00-04:00,146.1300048828125,146.1300048828125,146.1300048828125,146.1300048828125,319,0.0,0.0
2025-04-14 15:24:00-04:00,146.22999572753906,146.22999572753906,146.22999572753906,146.22999572753906,1306,0.0,0.0
2025-04-14 15:25:00-04:00,146.11000061035156,146.11000061035156,146.11000061035156,146.11000061035156,829,0.0,0.0
2025-04-14 15:26:00-04:00,145.99000549316406,145.99000549316406,145.93099975585938,145.97000122070312,624,0.0,0.0
2025-04-14 15:27:00-04:00,146.1199951171875,146.1199951171875,146.1199951171875,146.1199951171875,531,0.0,0.0
2025-04-14 15:28:00-04:00,146.22000122070312,146.22000122070312,146.14500427246094,146.14500427246094,1416,0.0,0.0
2025-04-14 15:31:00-04:00,146.06500244140625,146.06500244140625,146.06500244140625,146.06500244140625,3027,0.0,0.0
2025-04-14 15:32:00-04:00,146.05499267578125,146.05499267578125,145.98500061035156,145.98500061035156,3481,0.0,0.0
2025-04-14 15:33:00-04:00,146.0500030517578,146.09500122070312,146.0500030517578,146.09500122070312,1085,0.0,0.0
2025-04-14 15:35:00-04:00,146.0,146.00999450683594,145.86599731445312,145.86599731445312,781,0.0,0.0
2025-04-14 15:36:00-04:00,146.08999633789062,146.08999633789062,146.08999633789062,146.08999633789062,1422,0.0,0.0
2025-04-14 15:37:00-04:00,145.82000732421875,145.82000732421875,145.82000732421875,145.82000732421875,218,0.0,0.0
2025-04-14 15:38:00-04:00,145.72000122070312,145.72000122070312,145.72000122070312,145.72000122070312,406,0.0,0.0
2025-04-14 15:39:00-04:00,145.67999267578125,145.67999267578125,145.67999267578125,145.67999267578125,1265,0.0,0.0
2025-04-14 15:41:00-04:00,145.85000610351562,145.97000122070312,145.83999633789062,145.97000122070312,1035,0.0,0.0
2025-04-14 15:42:00-04:00,145.97999572753906,145.97999572753906,145.97999572753906,145.97999572753906,489,0.0,0.0
2025-04-14 15:43:00-04:00,145.94000244140625,146.24249267578125,145.94000244140625,146.24249267578125,1310,0.0,0.0
2025-04-14 15:44:00-04:00,146.2550048828125,146.2550048828125,146.1750030517578,146.1750030517578,846,0.0,0.0
2025-04-14 15:45:00-04:00,146.10000610351562,146.17999267578125,146.10000610351562,146.17999267578125,875,0.0,0.0
2025-04-14 15:46:00-04:00,146.22999572753906,146.27499389648438,146.22999572753906,146.27499389648438,2116,0.0,0.0
2025-04-14 15:47:00-04:00,146.10000610351562,146.10000610351562,146.08999633789062,146.08999633789062,866,0.0,0.0
2025-04-14 15:48:00-04:00,145.81199645996094,145.89999389648438,145.76499938964844,145.89999389648438,3274,0.0,0.0
2025-04-14 15:49:00-04:00,145.81500244140625,145.81500244140625,145.75,145.77999877929688,1241,0.0,0.0
2025-04-14 15:50:00-04:00,145.85000610351562,145.97000122070312,145.60000610351562,145.64999389648438,3285,0.0,0.0
2025-04-14 15:51:00-04:00,145.66000366210938,146.0,145.64999389648438,146.0,2181,0.0,0.0
2025-04-14 15:52:00-04:00,146.3300018310547,146.3300018310547,146.2449951171875,146.2449951171875,2677,0.0,0.0
2025-04-14 15:53:00-04:00,146.35000610351562,146.38999938964844,146.35000610351562,146.3800048828125,2509,0.0,0.0
2025-04-14 15:54:00-04:00,146.36000061035156,146.39500427246094,146.2100067138672,146.2100067138672,2047,0.0,0.0
2025-04-14 15:55:00-04:00,146.2100067138672,146.27000427246094,146.08999633789062,146.09249877929688,1751,0.0,0.0
2025-04-14 15:56:00-04:00,146.10000610351562,146.10000610351562,146.00999450683594,146.00999450683594,2525,0.0,0.0
2025-04-14 15:57:00-04:00,146.0,146.00999450683594,145.8699951171875,145.8699951171875,4694,0.0,0.0
2025-04-14 15:58:00-04:00,145.85000610351562,146.0500030517578,145.85000610351562,146.00999450683594,5495,0.0,0.0
2025-04-14 15:59:00-04:00,145.99000549316406,146.10000610351562,145.72000122070312,145.77999877929688,25056,0.0,0.0
2025-04-15 09:30:00-04:00,146.10000610351562,146.10000610351562,145.1750030517578,145.1750030517578,2712,0.0,0.0
2025-04-15 09:31:00-04:00,145.1199951171875,145.1199951171875,145.1199951171875,145.1199951171875,934,0.0,0.0
2025-04-15 09:32:00-04:00,145.77000427246094,145.77000427246094,145.77000427246094,145.77000427246094,193,0.0,0.0
2025-04-15 09:34:00-04:00,145.94000244140625,145.94000244140625,145.94000244140625,145.94000244140625,975,0.0,0.0
2025-04-15 09:35:00-04:00,145.58999633789062,145.58999633789062,144.99000549316406,145.0850067138672,1924,0.0,0.0
2025-04-15 09:36:00-04:00,144.85000610351562,144.8699951171875,144.83999633789062,144.85499572753906,1532,0.0,0.0
2025-04-15 09:39:00-04:00,145.57000732421875,145.57000732421875,145.57000732421875,145.57000732421875,264,0.0,0.0
2025-04-15 09:40:00-04:00,145.6699981689453,145.6699981689453,145.00999450683594,145.00999450683594,3544,0.0,0.0
2025-04-15 09:50:00-04:00,145.44000244140625,145.44000244140625,145.44000244140625,145.44000244140625,2101,0.0,0.0
2025-04-15 09:53:00-04:00,146.5399932861328,146.5399932861328,145.42999267578125,145.44000244140625,2571,0.0,0.0
2025-04-15 09:55:00-04:00,145.8300018310547,145.8300018310547,145.8300018310547,145.8300018310547,1171,0.0,0.0
2025-04-15 09:56:00-04:00,145.75,145.75,145.52999877929688,145.52999877929688,2365,0.0,0.0
2025-04-15 10:03:00-04:00,145.91000366210938,145.91000366210938,145.91000366210938,145.91000366210938,1383,0.0,0.0
2025-04-15 10:11:00-04:00,145.67250061035156,145.67250061035156,145.64999389648438,145.64999389648438,719,0.0,0.0
2025-04-15 10:13:00-04:00,145.81500244140625,145.91000366210938,145.81500244140625,145.91000366210938,1285,0.0,0.0
2025-04-15 10:16:00-04:00,145.6699981689453,145.6699981689453,145.6699981689453,145.6699981689453,262,0.0,0.0
2025-04-15 10:17:00-04:00,145.50999450683594,145.80999755859375,145.50250244140625,145.50250244140625,892,0.0,0.0
2025-04-15 10:20:00-04:00,145.0800018310547,145.13999938964844,145.05999755859375,145.13999938964844,1440,0.0,0.0
2025-04-15 10:21:00-04:00,145.13999938964844,145.13999938964844,145.05999755859375,145.05999755859375,3668,0.0,0.0
2025-04-15 10:22:00-04:00,145.14999389648438,145.1699981689453,144.97500610351562,145.0749969482422,3860,0.0,0.0
2025-04-15 10:23:00-04:00,145.1999969482422,145.1999969482422,145.10000610351562,145.10000610351562,666,0.0,0.0
2025-04-15 10:25:00-04:00,144.8699951171875,144.8699951171875,144.8699951171875,144.8699951171875,681,0.0,0.0
2025-04-15 10:26:00-04:00,144.64999389648438,144.64999389648438,144.64999389648438,144.64999389648438,1539,0.0,0.0
2025-04-15 10:30:00-04:00,145.55999755859375,145.55999755859375,145.2050018310547,145.2050018310547,305,0.0,0.0
2025-04-15 10:31:00-04:00,145.2100067138672,145.2100067138672,145.2100067138672,145.2100067138672,1399,0.0,0.0
2025-04-15 10:43:00-04:00,145.2050018310547,145.2050018310547,145.2050018310547,145.2050018310547,323,0.0,0.0
2025-04-15 10:46:00-04:00,145.14999389648438,145.14999389648438,145.04249572753906,145.13499450683594,3224,0.0,0.0
2025-04-15 10:47:00-04:00,145.08999633789062,145.08999633789062,145.08999633789062,145.08999633789062,1404,0.0,0.0
2025-04-15 10:55:00-04:00,145.31500244140625,145.31500244140625,145.31500244140625,145.31500244140625,441,0.0,0.0
2025-04-15 10:57:00-04:00,145.50999450683594,145.50999450683594,145.50999450683594,145.50999450683594,202,0.0,0.0
2025-04-15 10:58:00-04:00,145.52999877929688,145.52999877929688,145.52999877929688,145.52999877929688,946,0.0,0.0
2025-04-15 11:05:00-04:00,145.55999755859375,145.55999755859375,145.3000030517578,145.3000030517578,574,0.0,0.0
2025-04-15 11:06:00-04:00,145.5574951171875,145.5574951171875,145.5574951171875,145.5574951171875,188,0.0,0.0
2025-04-15 11:07:00-04:00,145.30999755859375,145.30999755859375,145.30999755859375,145.30999755859375,189,0.0,0.0
2025-04-15 11:08:00-04:00,145.30999755859375,145.5800018310547,145.2899932861328,145.5800018310547,2910,0.0,0.0
2025-04-15 11:15:00-04:00,145.50250244140625,145.5850067138672,145.50250244140625,145.5850067138672,1248,0.0,0.0
2025-04-15 11:28:00-04:00,145.3000030517578,145.4199981689453,145.25999450683594,145.4199981689453,1935,0.0,0.0
2025-04-15 11:31:00-04:00,145.6199951171875,145.63999938964844,145.6199951171875,145.63999938964844,687,0.0,0.0
2025-04-15 11:32:00-04:00,145.60000610351562,145.60000610351562,145.60000610351562,145.60000610351562,639,0.0,0.0
2025-04-15 11:39:00-04:00,145.64500427246094,145.64500427246094,145.64500427246094,145.64500427246094,410,0.0,0.0
2025-04-15 11:44:00-04:00,145.4261016845703,145.4261016845703,145.4261016845703,145.4261016845703,1797,0.0,0.0
2025-04-15 12:02:00-04:00,145.52000427246094,145.52000427246094,145.52000427246094,145.52000427246094,733,0.0,0.0
2025-04-15 12:03:00-04:00,145.86000061035156,145.86000061035156,145.86000061035156,145.86000061035156,248,0.0,0.0
2025-04-15 12:06:00-04:00,145.44000244140625,145.44000244140625,145.44000244140625,145.44000244140625,403,0.0,0.0
2025-04-15 12:08:00-04:00,145.38999938964844,145.38999938964844,145.38999938964844,145.38999938964844,144,0.0,0.0
2025-04-15 12:09:00-04:00,145.46499633789062,145.46499633789062,145.42999267578125,145.42999267578125,1323,0.0,0.0
2025-04-15 12:13:00-04:00,145.27999877929688,145.27999877929688,145.25,145.25,397,0.0,0.0
2025-04-15 12:14:00-04:00,145.2100067138672,145.2100067138672,145.1999969482422,145.1999969482422,1174,0.0,0.0
2025-04-15 12:20:00-04:00,145.22500610351562,145.22500610351562,145.22500610351562,145.22500610351562,149,0.0,0.0
2025-04-15 12:22:00-04:00,145.14999389648438,145.2324981689453,145.14999389648438,145.2324981689453,1130,0.0,0.0
2025-04-15 12:24:00-04:00,145.2675018310547,145.2675018310547,145.2675018310547,145.2675018310547,347,0.0,0.0
2025-04-15 12:25:00-04:00,145.42999267578125,145.42999267578125,145.42999267578125,145.42999267578125,303,0.0,0.0
2025-04-15 12:27:00-04:00,145.36500549316406,145.36500549316406,145.36500549316406,145.36500549316406,109,0.0,0.0
2025-04-15 12:28:00-04:00,145.35000610351562,145.35000610351562,145.27749633789062,145.28500366210938,2348,0.0,0.0
2025-04-15 12:32:00-04:00,145.2899932861328,145.2899932861328,145.2899932861328,145.2899932861328,483,0.0,0.0
2025-04-15 12:38:00-04:00,144.99000549316406,144.99000549316406,144.86000061035156,144.86000061035156,1198,0.0,0.0
2025-04-15 12:48:00-04:00,144.77999877929688,144.77999877929688,144.77999877929688,144.77999877929688,500,0.0,0.0
2025-04-15 12:54:00-04:00,144.69000244140625,144.69000244140625,144.69000244140625,144.69000244140625,412,0.0,0.0
2025-04-15 12:56:00-04:00,144.58999633789062,144.58999633789062,144.55999755859375,144.55999755859375,1162,0.0,0.0
2025-04-15 13:02:00-04:00,144.4781951904297,144.4781951904297,144.4781951904297,144.4781951904297,581,0.0,0.0
2025-04-15 13:03:00-04:00,144.6199951171875,144.6199951171875,144.6199951171875,144.6199951171875,600,0.0,0.0
2025-04-15 13:06:00-04:00,144.5449981689453,144.5449981689453,144.5449981689453,144.5449981689453,160,0.0,0.0
2025-04-15 13:08:00-04:00,144.55250549316406,144.55999755859375,144.55250549316406,144.55999755859375,1160,0.0,0.0
2025-04-15 13:17:00-04:00,144.22000122070312,144.31500244140625,144.22000122070312,144.31500244140625,397,0.0,0.0
2025-04-15 13:19:00-04:00,144.17999267578125,144.17999267578125,144.17999267578125,144.17999267578125,211,0.0,0.0
2025-04-15 13:23:00-04:00,144.11000061035156,144.11000061035156,144.0800018310547,144.0800018310547,509,0.0,0.0
2025-04-15 13:24:00-04:00,144.16639709472656,144.16639709472656,144.16639709472656,144.16639709472656,439,0.0,0.0
2025-04-15 13:27:00-04:00,144.17999267578125,144.17999267578125,144.17999267578125,144.17999267578125,552,0.0,0.0
2025-04-15 13:30:00-04:00,144.2100067138672,144.2100067138672,144.2100067138672,144.2100067138672,353,0.0,0.0
2025-04-15 13:33:00-04:00,144.23500061035156,144.23500061035156,144.23500061035156,144.23500061035156,865,0.0,0.0
2025-04-15 13:38:00-04:00,144.47000122070312,144.47000122070312,144.41000366210938,144.41000366210938,1300,0.0,0.0
2025-04-15 13:52:00-04:00,144.25,144.25,144.25,144.25,484,0.0,0.0
2025-04-15 13:53:00-04:00,144.14999389648438,144.14999389648438,144.1300048828125,144.1300048828125,423,0.0,0.0
2025-04-15 13:54:00-04:00,143.92999267578125,143.92999267578125,143.9199981689453,143.9199981689453,1275,0.0,0.0
2025-04-15 13:58:00-04:00,144.27999877929688,144.27999877929688,144.27999877929688,144.27999877929688,1064,0.0,0.0
2025-04-15 14:05:00-04:00,144.14500427246094,144.14500427246094,144.14500427246094,144.14500427246094,1276,0.0,0.0
2025-04-15 14:15:00-04:00,143.94000244140625,143.94000244140625,143.9199981689453,143.9199981689453,1111,0.0,0.0
2025-04-15 14:16:00-04:00,144.13999938964844,144.13999938964844,144.13999938964844,144.13999938964844,163,0.0,0.0
2025-04-15 14:17:00-04:00,144.10499572753906,144.10499572753906,144.10499572753906,144.10499572753906,259,0.0,0.0
2025-04-15 14:23:00-04:00,144.14999389648438,144.14999389648438,144.14999389648438,144.14999389648438,356,0.0,0.0
2025-04-15 14:26:00-04:00,144.25999450683594,144.25999450683594,144.22999572753906,144.22999572753906,415,0.0,0.0
2025-04-15 14:27:00-04:00,144.08999633789062,144.08999633789062,144.08999633789062,144.08999633789062,246,0.0,0.0
2025-04-15 14:29:00-04:00,144.22500610351562,144.22500610351562,144.22500610351562,144.22500610351562,491,0.0,0.0
2025-04-15 14:32:00-04:00,144.2949981689453,144.2949981689453,144.2949981689453,144.2949981689453,1445,0.0,0.0
2025-04-15 14:39:00-04:00,144.26499938964844,144.26499938964844,144.26499938964844,144.26499938964844,1684,0.0,0.0
2025-04-15 14:50:00-04:00,144.4199981689453,144.4199981689453,144.4199981689453,144.4199981689453,567,0.0,0.0
2025-04-15 14:52:00-04:00,144.27999877929688,144.27999877929688,144.27999877929688,144.27999877929688,486,0.0,0.0
2025-04-15 14:53:00-04:00,144.2449951171875,144.2449951171875,144.2449951171875,144.2449951171875,308,0.0,0.0
2025-04-15 14:58:00-04:00,144.19000244140625,144.19000244140625,144.19000244140625,144.19000244140625,294,0.0,0.0
2025-04-15 14:59:00-04:00,144.19000244140625,144.19000244140625,144.19000244140625,144.19000244140625,623,0.0,0.0
2025-04-15 15:01:00-04:00,144.2366943359375,144.2366943359375,144.2366943359375,144.2366943359375,351,0.0,0.0
2025-04-15 15:02:00-04:00,144.05999755859375,144.0800018310547,144.0500030517578,144.0800018310547,966,0.0,0.0
2025-04-15 15:03:00-04:00,144.06500244140625,144.06500244140625,144.06500244140625,144.06500244140625,117,0.0,0.0
2025-04-15 15:04:00-04:00,144.0919952392578,144.19000244140625,144.0919952392578,144.19000244140625,975,0.0,0.0
2025-04-15 15:05:00-04:00,144.26499938964844,144.26499938964844,144.26499938964844,144.26499938964844,212,0.0,0.0
2025-04-15 15:08:00-04:00,144.11000061035156,144.11000061035156,144.08009338378906,144.08009338378906,519,0.0,0.0
2025-04-15 15:09:00-04:00,144.26499938964844,144.26499938964844,144.26499938964844,144.26499938964844,160,0.0,0.0
2025-04-15 15:10:00-04:00,144.26499938964844,144.26499938964844,144.26499938964844,144.26499938964844,309,0.0,0.0
2025-04-15 15:13:00-04:00,144.26499938964844,144.27000427246094,144.26499938964844,144.27000427246094,493,0.0,0.0
2025-04-15 15:14:00-04:00,144.27000427246094,144.27000427246094,144.27000427246094,144.27000427246094,1002,0.0,0.0
2025-04-15 15:20:00-04:00,144.27499389648438,144.27499389648438,144.27499389648438,144.27499389648438,180,0.0,0.0
2025-04-15 15:21:00-04:00,144.418701171875,144.418701171875,144.418701171875,144.418701171875,394,0.0,0.0
2025-04-15 15:22:00-04:00,144.27999877929688,144.4199981689453,144.27999877929688,144.4199981689453,672,0.0,0.0
2025-04-15 15:23:00-04:00,144.2899932861328,144.2899932861328,144.2899932861328,144.2899932861328,1354,0.0,0.0
2025-04-15 15:24:00-04:00,144.4499969482422,144.4499969482422,144.41000366210938,144.41000366210938,2641,0.0,0.0
2025-04-15 15:25:00-04:00,144.50999450683594,144.50999450683594,144.50999450683594,144.50999450683594,244,0.0,0.0
2025-04-15 15:26:00-04:00,144.39999389648438,144.39999389648438,144.27999877929688,144.27999877929688,1578,0.0,0.0
2025-04-15 15:27:00-04:00,144.27999877929688,144.27999877929688,144.27999877929688,144.27999877929688,480,0.0,0.0
2025-04-15 15:28:00-04:00,144.27999877929688,144.27999877929688,144.27999877929688,144.27999877929688,535,0.0,0.0
2025-04-15 15:29:00-04:00,144.42999267578125,144.4949951171875,144.42999267578125,144.4949951171875,999,0.0,0.0
2025-04-15 15:31:00-04:00,144.32000732421875,144.32000732421875,144.25,144.25,1091,0.0,0.0
2025-04-15 15:32:00-04:00,144.28500366210938,144.30999755859375,144.28500366210938,144.28500366210938,1606,0.0,0.0
2025-04-15 15:35:00-04:00,144.26499938964844,144.26499938964844,143.99000549316406,143.99000549316406,1746,0.0,0.0
2025-04-15 15:37:00-04:00,143.99249267578125,143.99249267578125,143.99249267578125,143.99249267578125,448,0.0,0.0
2025-04-15 15:38:00-04:00,144.07000732421875,144.07000732421875,144.07000732421875,144.07000732421875,140,0.0,0.0
2025-04-15 15:39:00-04:00,144.07000732421875,144.07000732421875,143.9199981689453,144.01499938964844,1358,0.0,0.0
2025-04-15 15:40:00-04:00,144.01499938964844,144.01499938964844,144.01499938964844,144.01499938964844,156,0.0,0.0
2025-04-15 15:41:00-04:00,144.00999450683594,144.02000427246094,144.0050048828125,144.0050048828125,2070,0.0,0.0
2025-04-15 15:42:00-04:00,144.0050048828125,144.16000366210938,144.0050048828125,144.16000366210938,1485,0.0,0.0
2025-04-15 15:43:00-04:00,144.2899932861328,144.3300018310547,144.16000366210938,144.16000366210938,565,0.0,0.0
2025-04-15 15:44:00-04:00,144.39999389648438,144.39999389648438,144.39999389648438,144.39999389648438,165,0.0,0.0
2025-04-15 15:45:00-04:00,144.1649932861328,144.38999938964844,144.1649932861328,144.38999938964844,528,0.0,0.0
2025-04-15 15:47:00-04:00,144.13499450683594,144.13499450683594,144.0800018310547,144.0800018310547,1093,0.0,0.0
2025-04-15 15:48:00-04:00,144.0800018310547,144.1999969482422,144.0800018310547,144.1999969482422,639,0.0,0.0
2025-04-15 15:49:00-04:00,144.3000030517578,144.32000732421875,144.14500427246094,144.16000366210938,1814,0.0,0.0
2025-04-15 15:50:00-04:00,144.0399932861328,144.05999755859375,144.02999877929688,144.05999755859375,670,0.0,0.0
2025-04-15 15:53:00-04:00,144.40499877929688,144.4250030517578,144.40499877929688,144.4250030517578,5064,0.0,0.0
2025-04-15 15:54:00-04:00,144.64999389648438,144.64999389648438,144.47999572753906,144.5800018310547,3242,0.0,0.0
2025-04-15 15:55:00-04:00,144.35000610351562,144.35000610351562,143.91000366210938,144.07000732421875,2586,0.0,0.0
2025-04-15 15:56:00-04:00,144.08999633789062,144.08999633789062,143.94000244140625,143.9499969482422,2459,0.0,0.0
2025-04-15 15:57:00-04:00,144.00999450683594,144.10000610351562,144.0,144.0800018310547,7384,0.0,0.0
2025-04-15 15:58:00-04:00,143.97999572753906,144.13499450683594,143.97999572753906,144.13499450683594,8424,0.0,0.0
2025-04-15 15:59:00-04:00,144.0500030517578,144.0500030517578,143.8800048828125,143.92999267578125,15152,0.0,0.0
2025-04-16 09:30:00-04:00,144.05999755859375,144.52000427246094,144.05999755859375,144.52000427246094,2521,0.0,0.0
2025-04-16 09:31:00-04:00,144.58999633789062,144.58999633789062,144.52999877929688,144.52999877929688,813,0.0,0.0
2025-04-16 09:36:00-04:00,144.65499877929688,145.82000732421875,144.65499877929688,145.82000732421875,1078,0.0,0.0
2025-04-16 09:42:00-04:00,144.5399932861328,144.5399932861328,144.24000549316406,144.24000549316406,772,0.0,0.0
2025-04-16 09:43:00-04:00,144.05999755859375,144.05999755859375,143.9199981689453,143.9199981689453,975,0.0,0.0
2025-04-16 09:44:00-04:00,143.9199981689453,143.9199981689453,142.5749969482422,143.0800018310547,769,0.0,0.0
2025-04-16 09:45:00-04:00,143.0800018310547,144.44000244140625,142.88999938964844,142.88999938964844,3386,0.0,0.0
2025-04-16 09:46:00-04:00,143.6699981689453,143.6699981689453,143.39999389648438,143.39999389648438,823,0.0,0.0
2025-04-16 09:48:00-04:00,143.6699981689453,143.77999877929688,142.5800018310547,142.5800018310547,6657,0.0,0.0
2025-04-16 09:49:00-04:00,143.69500732421875,143.69500732421875,142.94500732421875,142.94500732421875,650,0.0,0.0
2025-04-16 09:50:00-04:00,143.1699981689453,143.1699981689453,143.1699981689453,143.1699981689453,117,0.0,0.0
2025-04-16 09:51:00-04:00,143.3699951171875,143.3699951171875,143.3699951171875,143.3699951171875,278,0.0,0.0
2025-04-16 09:54:00-04:00,142.9499969482422,142.9499969482422,142.6199951171875,142.6199951171875,1437,0.0,0.0
2025-04-16 09:55:00-04:00,142.77999877929688,142.77999877929688,142.6199951171875,142.77999877929688,1430,0.0,0.0
2025-04-16 09:57:00-04:00,143.02000427246094,143.02000427246094,143.02000427246094,143.02000427246094,335,0.0,0.0
2025-04-16 09:59:00-04:00,143.4250030517578,144.0399932861328,143.4250030517578,143.61000061035156,7634,0.0,0.0
2025-04-16 10:00:00-04:00,142.91000366210938,143.3300018310547,142.91000366210938,143.02000427246094,1527,0.0,0.0
2025-04-16 10:02:00-04:00,143.63499450683594,144.11000061035156,143.625,143.8000030517578,2217,0.0,0.0
2025-04-16 10:03:00-04:00,143.7899932861328,143.7899932861328,143.77999877929688,143.77999877929688,755,0.0,0.0
2025-04-16 10:04:00-04:00,143.69500732421875,143.69500732421875,143.69500732421875,143.69500732421875,1415,0.0,0.0
2025-04-16 10:05:00-04:00,144.19000244140625,144.19000244140625,144.19000244140625,144.19000244140625,447,0.0,0.0
2025-04-16 10:06:00-04:00,143.8800048828125,143.8800048828125,143.8800048828125,143.8800048828125,618,0.0,0.0
2025-04-16 10:07:00-04:00,143.67999267578125,143.67999267578125,143.67999267578125,143.67999267578125,773,0.0,0.0
2025-04-16 10:08:00-04:00,143.5800018310547,143.75,143.44000244140625,143.73500061035156,3003,0.0,0.0
2025-04-16 10:09:00-04:00,143.3699951171875,143.3699951171875,143.3699951171875,143.3699951171875,205,0.0,0.0
2025-04-16 10:10:00-04:00,143.42999267578125,143.42999267578125,143.42999267578125,143.42999267578125,247,0.0,0.0
2025-04-16 10:11:00-04:00,143.3699951171875,143.3699951171875,143.09500122070312,143.09500122070312,938,0.0,0.0
2025-04-16 10:12:00-04:00,143.1999969482422,143.1999969482422,143.1999969482422,143.1999969482422,887,0.0,0.0
2025-04-16 10:16:00-04:00,143.5,143.5,143.5,143.5,181,0.0,0.0
2025-04-16 10:17:00-04:00,143.7050018310547,143.7050018310547,143.7050018310547,143.7050018310547,548,0.0,0.0
2025-04-16 10:18:00-04:00,143.52000427246094,143.52000427246094,143.52000427246094,143.52000427246094,1959,0.0,0.0
2025-04-16 10:19:00-04:00,143.69000244140625,143.83999633789062,143.69000244140625,143.83999633789062,1667,0.0,0.0
2025-04-16 10:22:00-04:00,143.71499633789062,143.71499633789062,143.71499633789062,143.71499633789062,211,0.0,0.0
2025-04-16 10:23:00-04:00,143.8415985107422,143.8415985107422,143.68499755859375,143.68499755859375,642,0.0,0.0
2025-04-16 10:24:00-04:00,143.875,143.875,143.875,143.875,889,0.0,0.0
2025-04-16 10:26:00-04:00,144.11000061035156,144.11000061035156,143.97999572753906,143.97999572753906,1251,0.0,0.0
2025-04-16 10:27:00-04:00,144.0500030517578,144.0500030517578,144.0500030517578,144.0500030517578,293,0.0,0.0
2025-04-16 10:28:00-04:00,144.0500030517578,144.0500030517578,144.0500030517578,144.0500030517578,357,0.0,0.0
2025-04-16 10:30:00-04:00,144.1699981689453,144.17999267578125,144.1699981689453,144.17999267578125,487,0.0,0.0
2025-04-16 10:31:00-04:00,143.8061065673828,144.24000549316406,143.8061065673828,144.07000732421875,3332,0.0,0.0
2025-04-16 10:32:00-04:00,144.07000732421875,144.07000732421875,143.77999877929688,143.77999877929688,1292,0.0,0.0
2025-04-16 10:35:00-04:00,144.07000732421875,144.16000366210938,144.07000732421875,144.0749969482422,952,0.0,0.0
2025-04-16 10:38:00-04:00,144.05499267578125,144.25999450683594,144.05499267578125,144.0800018310547,15495,0.0,0.0
2025-04-16 10:42:00-04:00,144.0399932861328,144.0399932861328,144.0399932861328,144.0399932861328,891,0.0,0.0
2025-04-16 10:43:00-04:00,144.03500366210938,144.03500366210938,144.03500366210938,144.03500366210938,919,0.0,0.0
2025-04-16 10:45:00-04:00,143.83999633789062,143.83999633789062,143.83999633789062,143.83999633789062,349,0.0,0.0
2025-04-16 10:46:00-04:00,143.7899932861328,143.7899932861328,143.7899932861328,143.7899932861328,187,0.0,0.0
2025-04-16 10:47:00-04:00,143.88499450683594,143.94000244140625,143.88499450683594,143.89500427246094,658,0.0,0.0
2025-04-16 10:48:00-04:00,143.80999755859375,143.80999755859375,143.80999755859375,143.80999755859375,213,0.0,0.0
2025-04-16 10:49:00-04:00,143.81500244140625,143.91000366210938,143.80999755859375,143.91000366210938,936,0.0,0.0
2025-04-16 10:51:00-04:00,143.7949981689453,144.02999877929688,143.7949981689453,143.96499633789062,2515,0.0,0.0
2025-04-16 10:52:00-04:00,143.94500732421875,143.94500732421875,143.94500732421875,143.94500732421875,352,0.0,0.0
2025-04-16 10:53:00-04:00,143.94000244140625,143.94000244140625,143.94000244140625,143.94000244140625,128,0.0,0.0
2025-04-16 10:54:00-04:00,143.92999267578125,143.92999267578125,143.92999267578125,143.92999267578125,188,0.0,0.0
2025-04-16 10:55:00-04:00,144.0850067138672,144.0850067138672,143.9199981689453,143.9199981689453,362,0.0,0.0
2025-04-16 10:58:00-04:00,143.91000366210938,143.91000366210938,143.91000366210938,143.91000366210938,305,0.0,0.0
2025-04-16 10:59:00-04:00,143.91000366210938,143.91000366210938,143.91000366210938,143.91000366210938,275,0.0,0.0
2025-04-16 11:00:00-04:00,143.91000366210938,143.91000366210938,143.91000366210938,143.91000366210938,827,0.0,0.0
2025-04-16 11:01:00-04:00,144.10000610351562,144.22000122070312,144.10000610351562,144.19000244140625,2533,0.0,0.0
2025-04-16 11:07:00-04:00,144.2949981689453,144.2949981689453,144.1199951171875,144.1199951171875,476,0.0,0.0
2025-04-16 11:08:00-04:00,144.02000427246094,144.02000427246094,144.02000427246094,144.02000427246094,482,0.0,0.0
2025-04-16 11:14:00-04:00,144.00999450683594,144.00999450683594,144.0,144.0,848,0.0,0.0
2025-04-16 11:19:00-04:00,144.3800048828125,144.38999938964844,144.3800048828125,144.38999938964844,636,0.0,0.0
2025-04-16 11:24:00-04:00,144.66000366210938,144.66000366210938,144.66000366210938,144.66000366210938,640,0.0,0.0
2025-04-16 11:29:00-04:00,145.1300048828125,145.1300048828125,145.1300048828125,145.1300048828125,537,0.0,0.0
2025-04-16 11:32:00-04:00,144.64010620117188,144.64010620117188,144.64010620117188,144.64010620117188,469,0.0,0.0
2025-04-16 11:34:00-04:00,144.9199981689453,144.9199981689453,144.9199981689453,144.9199981689453,820,0.0,0.0
2025-04-16 11:40:00-04:00,144.9600067138672,145.0,144.93499755859375,144.9499969482422,1456,0.0,0.0
2025-04-16 11:41:00-04:00,144.80999755859375,144.80999755859375,144.72999572753906,144.72999572753906,1594,0.0,0.0
2025-04-16 11:46:00-04:00,144.72500610351562,144.91000366210938,144.72500610351562,144.91000366210938,805,0.0,0.0
2025-04-16 11:49:00-04:00,144.5399932861328,144.5399932861328,144.5399932861328,144.5399932861328,460,0.0,0.0
2025-04-16 11:52:00-04:00,144.5500030517578,144.5500030517578,144.5500030517578,144.5500030517578,801,0.0,0.0
2025-04-16 11:58:00-04:00,144.52999877929688,144.52999877929688,144.52999877929688,144.52999877929688,550,0.0,0.0
2025-04-16 11:59:00-04:00,144.3300018310547,144.3300018310547,144.3300018310547,144.3300018310547,279,0.0,0.0
2025-04-16 12:01:00-04:00,144.3686065673828,144.4600067138672,144.3686065673828,144.4600067138672,424,0.0,0.0
2025-04-16 12:02:00-04:00,144.42520141601562,144.42520141601562,144.42520141601562,144.42520141601562,199,0.0,0.0
2025-04-16 12:04:00-04:00,144.4219970703125,144.4219970703125,144.4219970703125,144.4219970703125,558,0.0,0.0
2025-04-16 12:05:00-04:00,144.47000122070312,144.47000122070312,144.47000122070312,144.47000122070312,1334,0.0,0.0
2025-04-16 12:19:00-04:00,144.48500061035156,144.48500061035156,144.48500061035156,144.48500061035156,420,0.0,0.0
2025-04-16 12:23:00-04:00,144.4199981689453,144.4199981689453,144.4199981689453,144.4199981689453,335,0.0,0.0
2025-04-16 12:25:00-04:00,144.55999755859375,144.55999755859375,144.55999755859375,144.55999755859375,343,0.0,0.0
2025-04-16 12:27:00-04:00,144.4149932861328,144.4149932861328,144.4149932861328,144.4149932861328,506,0.0,0.0
2025-04-16 12:32:00-04:00,144.5749969482422,144.5749969482422,144.5749969482422,144.5749969482422,590,0.0,0.0
2025-04-16 12:33:00-04:00,144.5749969482422,144.5749969482422,144.5749969482422,144.5749969482422,228,0.0,0.0
2025-04-16 12:34:00-04:00,144.72000122070312,144.77499389648438,144.72000122070312,144.77000427246094,1292,0.0,0.0
2025-04-16 12:37:00-04:00,144.61000061035156,144.61000061035156,144.61000061035156,144.61000061035156,319,0.0,0.0
2025-04-16 12:39:00-04:00,144.57000732421875,144.57000732421875,144.57000732421875,144.57000732421875,1675,0.0,0.0
2025-04-16 12:46:00-04:00,144.80999755859375,144.80999755859375,144.80999755859375,144.80999755859375,3298,0.0,0.0
2025-04-16 12:59:00-04:00,144.91000366210938,145.38999938964844,144.89999389648438,145.38999938964844,4556,0.0,0.0
2025-04-16 13:00:00-04:00,145.14999389648438,145.14999389648438,145.13999938964844,145.13999938964844,603,0.0,0.0
2025-04-16 13:01:00-04:00,145.22500610351562,145.22500610351562,145.11000061035156,145.11000061035156,1457,0.0,0.0
2025-04-16 13:05:00-04:00,144.97999572753906,144.97999572753906,144.97999572753906,144.97999572753906,589,0.0,0.0
2025-04-16 13:09:00-04:00,145.17999267578125,145.17999267578125,145.17999267578125,145.17999267578125,685,0.0,0.0
2025-04-16 13:17:00-04:00,145.3300018310547,145.3300018310547,145.3300018310547,145.3300018310547,371,0.0,0.0
2025-04-16 13:19:00-04:00,145.42999267578125,145.6009979248047,145.42999267578125,145.6009979248047,1653,0.0,0.0
2025-04-16 13:26:00-04:00,145.25,145.27999877929688,145.1999969482422,145.1999969482422,1529,0.0,0.0
2025-04-16 13:30:00-04:00,145.1699981689453,145.25999450683594,144.8800048828125,145.25999450683594,3069,0.0,0.0
2025-04-16 13:31:00-04:00,145.1199951171875,145.1199951171875,145.1199951171875,145.1199951171875,421,0.0,0.0
2025-04-16 13:32:00-04:00,144.91000366210938,145.11000061035156,144.8800048828125,145.11000061035156,6729,0.0,0.0
2025-04-16 13:33:00-04:00,145.07000732421875,145.07000732421875,145.07000732421875,145.07000732421875,345,0.0,0.0
2025-04-16 13:34:00-04:00,145.06500244140625,145.06500244140625,145.06500244140625,145.06500244140625,466,0.0,0.0
2025-04-16 13:39:00-04:00,144.77999877929688,144.77999877929688,144.77999877929688,144.77999877929688,1125,0.0,0.0
2025-04-16 13:45:00-04:00,144.6999969482422,144.6999969482422,144.6999969482422,144.6999969482422,308,0.0,0.0
2025-04-16 13:46:00-04:00,144.68499755859375,144.68499755859375,144.68499755859375,144.68499755859375,336,0.0,0.0
2025-04-16 13:47:00-04:00,144.5399932861328,144.6699981689453,144.5399932861328,144.5399932861328,3945,0.0,0.0
2025-04-16 13:48:00-04:00,144.63999938964844,144.63999938964844,144.63999938964844,144.63999938964844,114,0.0,0.0
2025-04-16 13:49:00-04:00,144.63999938964844,144.63999938964844,144.63999938964844,144.63999938964844,598,0.0,0.0
2025-04-16 13:50:00-04:00,144.5399932861328,144.5399932861328,144.2978057861328,144.2978057861328,1513,0.0,0.0
2025-04-16 13:51:00-04:00,144.4250030517578,144.4250030517578,144.2550048828125,144.2550048828125,1742,0.0,0.0
2025-04-16 13:52:00-04:00,144.2100067138672,144.35000610351562,144.2100067138672,144.33999633789062,1005,0.0,0.0
2025-04-16 13:56:00-04:00,144.2949981689453,144.2949981689453,144.2949981689453,144.2949981689453,546,0.0,0.0
2025-04-16 13:57:00-04:00,144.02000427246094,144.02000427246094,144.02000427246094,144.02000427246094,666,0.0,0.0
2025-04-16 14:00:00-04:00,144.19000244140625,144.19000244140625,144.0749969482422,144.0749969482422,840,0.0,0.0
2025-04-16 14:05:00-04:00,144.08700561523438,144.1999969482422,144.08700561523438,144.16000366210938,5002,0.0,0.0
2025-04-16 14:06:00-04:00,144.11000061035156,144.3699951171875,144.11000061035156,144.36500549316406,6518,0.0,0.0
2025-04-16 14:07:00-04:00,144.4199981689453,144.4199981689453,144.19000244140625,144.19000244140625,713,0.0,0.0
2025-04-16 14:08:00-04:00,143.9700927734375,143.9700927734375,143.9700927734375,143.9700927734375,881,0.0,0.0
2025-04-16 14:10:00-04:00,144.22000122070312,144.22000122070312,144.22000122070312,144.22000122070312,279,0.0,0.0
2025-04-16 14:12:00-04:00,144.24000549316406,144.24000549316406,144.24000549316406,144.24000549316406,101,0.0,0.0
2025-04-16 14:13:00-04:00,144.24000549316406,144.24000549316406,144.24000549316406,144.24000549316406,1540,0.0,0.0
2025-04-16 14:17:00-04:00,144.10000610351562,144.10000610351562,144.08999633789062,144.08999633789062,552,0.0,0.0
2025-04-16 14:18:00-04:00,144.0507049560547,144.0507049560547,144.0507049560547,144.0507049560547,333,0.0,0.0
2025-04-16 14:19:00-04:00,144.1699981689453,144.1699981689453,144.1699981689453,144.1699981689453,104,0.0,0.0
2025-04-16 14:20:00-04:00,144.1699981689453,144.1699981689453,144.1699981689453,144.1699981689453,249,0.0,0.0
2025-04-16 14:22:00-04:00,144.3000030517578,144.30999755859375,144.3000030517578,144.30999755859375,788,0.0,0.0
2025-04-16 14:25:00-04:00,144.2949981689453,144.2949981689453,144.2949981689453,144.2949981689453,295,0.0,0.0
2025-04-16 14:26:00-04:00,144.47000122070312,144.47000122070312,144.47000122070312,144.47000122070312,1280,0.0,0.0
2025-04-16 14:30:00-04:00,144.6999969482422,144.88999938964844,144.67999267578125,144.88999938964844,3582,0.0,0.0
2025-04-16 14:31:00-04:00,144.72000122070312,144.72000122070312,144.72000122070312,144.72000122070312,531,0.0,0.0
2025-04-16 14:32:00-04:00,144.68499755859375,144.68499755859375,144.68499755859375,144.68499755859375,685,0.0,0.0
2025-04-16 14:35:00-04:00,144.7100067138672,144.7100067138672,144.7100067138672,144.7100067138672,937,0.0,0.0
2025-04-16 14:37:00-04:00,144.5749969482422,144.5749969482422,144.57000732421875,144.5749969482422,684,0.0,0.0
2025-04-16 14:38:00-04:00,144.47999572753906,144.47999572753906,144.31370544433594,144.31370544433594,1409,0.0,0.0
2025-04-16 14:40:00-04:00,144.50999450683594,144.50999450683594,144.50999450683594,144.50999450683594,471,0.0,0.0
2025-04-16 14:41:00-04:00,144.3800048828125,144.3800048828125,144.3800048828125,144.3800048828125,961,0.0,0.0
2025-04-16 14:44:00-04:00,144.67999267578125,144.67999267578125,144.67999267578125,144.67999267578125,522,0.0,0.0
2025-04-16 14:48:00-04:00,144.60000610351562,144.60000610351562,144.60000610351562,144.60000610351562,424,0.0,0.0
2025-04-16 14:50:00-04:00,144.52999877929688,144.52999877929688,144.52999877929688,144.52999877929688,512,0.0,0.0
2025-04-16 14:52:00-04:00,144.66000366210938,144.66000366210938,144.64999389648438,144.64999389648438,812,0.0,0.0
2025-04-16 14:53:00-04:00,144.64999389648438,144.64999389648438,144.58999633789062,144.61500549316406,793,0.0,0.0
2025-04-16 14:54:00-04:00,144.61500549316406,144.61500549316406,144.61500549316406,144.61500549316406,513,0.0,0.0
2025-04-16 14:56:00-04:00,144.6300048828125,144.6300048828125,144.6300048828125,144.6300048828125,371,0.0,0.0
2025-04-16 14:57:00-04:00,144.61500549316406,144.61500549316406,144.61500549316406,144.61500549316406,803,0.0,0.0
2025-04-16 14:59:00-04:00,144.52999877929688,144.52999877929688,144.52999877929688,144.52999877929688,559,0.0,0.0
2025-04-16 15:00:00-04:00,144.49000549316406,144.52999877929688,144.49000549316406,144.52999877929688,357,0.0,0.0
2025-04-16 15:01:00-04:00,144.52999877929688,144.52999877929688,144.44000244140625,144.44000244140625,1035,0.0,0.0
2025-04-16 15:02:00-04:00,144.4149932861328,144.4149932861328,144.4149932861328,144.4149932861328,669,0.0,0.0
2025-04-16 15:04:00-04:00,144.31500244140625,144.31500244140625,144.17999267578125,144.17999267578125,1457,0.0,0.0
2025-04-16 15:05:00-04:00,144.25999450683594,144.36000061035156,144.25999450683594,144.3249969482422,836,0.0,0.0
2025-04-16 15:06:00-04:00,144.32000732421875,144.32000732421875,144.32000732421875,144.32000732421875,484,0.0,0.0
2025-04-16 15:09:00-04:00,144.1649932861328,144.1649932861328,144.1649932861328,144.1649932861328,196,0.0,0.0
2025-04-16 15:10:00-04:00,144.09500122070312,144.09500122070312,144.0,144.0,788,0.0,0.0
2025-04-16 15:11:00-04:00,144.08999633789062,144.11000061035156,144.08999633789062,144.11000061035156,730,0.0,0.0
2025-04-16 15:12:00-04:00,144.13999938964844,144.19000244140625,144.13999938964844,144.17999267578125,1105,0.0,0.0
2025-04-16 15:13:00-04:00,144.36000061035156,144.39999389648438,144.36000061035156,144.36000061035156,1154,0.0,0.0
2025-04-16 15:16:00-04:00,144.4199981689453,144.4199981689453,144.4199981689453,144.4199981689453,371,0.0,0.0
2025-04-16 15:17:00-04:00,144.4199981689453,144.4199981689453,144.24000549316406,144.24000549316406,1434,0.0,0.0
2025-04-16 15:18:00-04:00,144.3300018310547,144.3300018310547,144.2100067138672,144.2100067138672,1469,0.0,0.0
2025-04-16 15:20:00-04:00,144.23500061035156,144.3489990234375,144.23500061035156,144.3489990234375,1399,0.0,0.0
2025-04-16 15:22:00-04:00,144.35000610351562,144.35000610351562,144.35000610351562,144.35000610351562,480,0.0,0.0
2025-04-16 15:23:00-04:00,144.36000061035156,144.36000061035156,144.36000061035156,144.36000061035156,250,0.0,0.0
2025-04-16 15:24:00-04:00,144.35000610351562,144.35000610351562,144.25,144.25,872,0.0,0.0
2025-04-16 15:25:00-04:00,144.25,144.25,144.2050018310547,144.2050018310547,968,0.0,0.0
2025-04-16 15:27:00-04:00,144.2050018310547,144.2050018310547,144.2050018310547,144.2050018310547,764,0.0,0.0
2025-04-16 15:28:00-04:00,144.3000030517578,144.3000030517578,144.1199951171875,144.1199951171875,851,0.0,0.0
2025-04-16 15:30:00-04:00,144.13499450683594,144.3000030517578,144.13499450683594,144.3000030517578,1258,0.0,0.0
2025-04-16 15:31:00-04:00,144.27000427246094,144.27000427246094,144.13999938964844,144.13999938964844,1018,0.0,0.0
2025-04-16 15:32:00-04:00,144.0800018310547,144.0800018310547,143.98240661621094,143.98240661621094,345,0.0,0.0
2025-04-16 15:33:00-04:00,144.08999633789062,144.10000610351562,144.08999633789062,144.10000610351562,1289,0.0,0.0
2025-04-16 15:35:00-04:00,144.05999755859375,144.05999755859375,143.9199981689453,143.9199981689453,1150,0.0,0.0
2025-04-16 15:37:00-04:00,144.01499938964844,144.01499938964844,144.01499938964844,144.01499938964844,462,0.0,0.0
2025-04-16 15:39:00-04:00,144.2100067138672,144.2100067138672,144.2100067138672,144.2100067138672,187,0.0,0.0
2025-04-16 15:40:00-04:00,144.27000427246094,144.2899932861328,144.27000427246094,144.27000427246094,2488,0.0,0.0
2025-04-16 15:43:00-04:00,144.60000610351562,144.6699981689453,144.60000610351562,144.6699981689453,653,0.0,0.0
2025-04-16 15:44:00-04:00,144.6750030517578,144.6750030517578,144.63499450683594,144.63499450683594,838,0.0,0.0
2025-04-16 15:45:00-04:00,144.5500030517578,144.61000061035156,144.45460510253906,144.45460510253906,2201,0.0,0.0
2025-04-16 15:46:00-04:00,144.52999877929688,144.52999877929688,144.3699951171875,144.41000366210938,2220,0.0,0.0
2025-04-16 15:48:00-04:00,144.5399932861328,144.64999389648438,144.5399932861328,144.64999389648438,1071,0.0,0.0
2025-04-16 15:49:00-04:00,144.60000610351562,144.8000030517578,144.58999633789062,144.8000030517578,956,0.0,0.0
2025-04-16 15:50:00-04:00,145.0850067138672,145.0850067138672,144.58999633789062,144.58999633789062,1808,0.0,0.0
2025-04-16 15:51:00-04:00,145.00999450683594,145.0800018310547,145.00999450683594,145.00999450683594,1650,0.0,0.0
2025-04-16 15:52:00-04:00,144.97999572753906,145.1999969482422,144.97999572753906,145.1999969482422,1112,0.0,0.0
2025-04-16 15:53:00-04:00,145.08999633789062,145.08999633789062,145.08999633789062,145.08999633789062,707,0.0,0.0
2025-04-16 15:54:00-04:00,145.17999267578125,145.30999755859375,145.17999267578125,145.30999755859375,2092,0.0,0.0
2025-04-16 15:55:00-04:00,145.13999938964844,145.16000366210938,145.10000610351562,145.16000366210938,1023,0.0,0.0
2025-04-16 15:56:00-04:00,145.32000732421875,145.72999572753906,145.3000030517578,145.72999572753906,8061,0.0,0.0
2025-04-16 15:57:00-04:00,145.72999572753906,145.72999572753906,145.39999389648438,145.39999389648438,5626,0.0,0.0
2025-04-16 15:58:00-04:00,145.39999389648438,145.4199981689453,145.3000030517578,145.41000366210938,6984,0.0,0.0
2025-04-16 15:59:00-04:00,145.39999389648438,145.41000366210938,144.97999572753906,145.0800018310547,9169,0.0,0.0
2025-04-17 09:30:00-04:00,145.39999389648438,145.58999633789062,145.39999389648438,145.58999633789062,4486,0.0,0.0
2025-04-17 09:35:00-04:00,145.76499938964844,145.76499938964844,144.82000732421875,144.82000732421875,4103,0.0,0.0
2025-04-17 09:37:00-04:00,144.9600067138672,144.9600067138672,144.9600067138672,144.9600067138672,100,0.0,0.0
2025-04-17 09:38:00-04:00,144.86000061035156,144.91200256347656,144.82000732421875,144.82000732421875,3546,0.0,0.0
2025-04-17 09:39:00-04:00,144.91200256347656,145.16000366210938,144.82000732421875,145.16000366210938,1439,0.0,0.0
2025-04-17 09:40:00-04:00,144.56500244140625,144.56500244140625,144.17999267578125,144.17999267578125,1690,0.0,0.0
2025-04-17 09:41:00-04:00,144.18499755859375,144.49000549316406,143.83999633789062,144.27000427246094,3698,0.0,0.0
2025-04-17 09:42:00-04:00,144.5,144.5,144.0,144.32000732421875,1844,0.0,0.0
2025-04-17 09:43:00-04:00,144.07000732421875,144.3000030517578,143.9499969482422,143.9499969482422,2971,0.0,0.0
2025-04-17 09:44:00-04:00,144.08999633789062,144.4199981689453,143.83999633789062,144.00999450683594,10004,0.0,0.0
2025-04-17 09:45:00-04:00,144.72500610351562,144.72500610351562,144.72500610351562,144.72500610351562,430,0.0,0.0
2025-04-17 09:46:00-04:00,144.52000427246094,144.52000427246094,144.02999877929688,144.02999877929688,722,0.0,0.0
2025-04-17 09:48:00-04:00,144.64999389648438,144.64999389648438,144.3000030517578,144.3000030517578,2460,0.0,0.0
2025-04-17 09:50:00-04:00,144.3000030517578,144.3000030517578,143.89999389648438,143.89999389648438,1956,0.0,0.0
2025-04-17 09:51:00-04:00,144.03500366210938,144.11000061035156,143.2899932861328,143.5500030517578,5172,0.0,0.0
2025-04-17 09:52:00-04:00,143.3300018310547,143.55499267578125,143.24000549316406,143.33999633789062,1868,0.0,0.0
2025-04-17 09:53:00-04:00,143.33999633789062,143.47000122070312,143.33999633789062,143.47000122070312,1387,0.0,0.0
2025-04-17 09:54:00-04:00,143.2899932861328,143.2899932861328,143.01499938964844,143.01499938964844,1659,0.0,0.0
2025-04-17 09:55:00-04:00,143.0,143.0,142.64999389648438,142.6699981689453,1902,0.0,0.0
2025-04-17 09:56:00-04:00,142.6699981689453,142.6699981689453,142.6699981689453,142.6699981689453,138,0.0,0.0
2025-04-17 09:57:00-04:00,142.6699981689453,142.67999267578125,142.17999267578125,142.17999267578125,1874,0.0,0.0
2025-04-17 09:58:00-04:00,142.10000610351562,142.18499755859375,142.10000610351562,142.18499755859375,746,0.0,0.0
2025-04-17 09:59:00-04:00,141.8000030517578,142.97000122070312,141.77999877929688,142.08999633789062,13672,0.0,0.0
2025-04-17 10:00:00-04:00,142.0800018310547,142.10000610351562,141.52999877929688,142.10000610351562,7916,0.0,0.0
2025-04-17 10:01:00-04:00,141.98500061035156,142.02000427246094,141.75,141.75,4687,0.0,0.0
2025-04-17 10:02:00-04:00,141.3800048828125,141.47000122070312,141.3800048828125,141.44000244140625,2880,0.0,0.0
2025-04-17 10:03:00-04:00,141.6699981689453,141.68499755859375,140.7100067138672,140.7100067138672,10270,0.0,0.0
2025-04-17 10:04:00-04:00,140.76499938964844,141.32000732421875,140.7100067138672,141.32000732421875,4585,0.0,0.0
2025-04-17 10:05:00-04:00,141.77999877929688,142.00999450683594,141.77999877929688,142.00999450683594,2525,0.0,0.0
2025-04-17 10:06:00-04:00,142.11000061035156,142.11000061035156,141.69000244140625,141.6999969482422,1468,0.0,0.0
2025-04-17 10:07:00-04:00,141.99000549316406,141.99000549316406,141.6999969482422,141.6999969482422,1695,0.0,0.0
2025-04-17 10:08:00-04:00,141.7949981689453,141.7949981689453,141.7949981689453,141.7949981689453,1189,0.0,0.0
2025-04-17 10:11:00-04:00,142.91000366210938,142.9199981689453,142.6199951171875,142.6199951171875,938,0.0,0.0
2025-04-17 10:12:00-04:00,143.05999755859375,143.05999755859375,143.05999755859375,143.05999755859375,377,0.0,0.0
2025-04-17 10:13:00-04:00,142.9250030517578,142.9250030517578,142.9250030517578,142.9250030517578,968,0.0,0.0
2025-04-17 10:15:00-04:00,142.02000427246094,142.05999755859375,141.7899932861328,141.85000610351562,4159,0.0,0.0
2025-04-17 10:16:00-04:00,141.94500732421875,142.2899932861328,141.94500732421875,142.2899932861328,635,0.0,0.0
2025-04-17 10:18:00-04:00,142.17999267578125,142.19000244140625,142.10000610351562,142.19000244140625,817,0.0,0.0
2025-04-17 10:19:00-04:00,141.7899932861328,142.02999877929688,141.74000549316406,142.02999877929688,791,0.0,0.0
2025-04-17 10:20:00-04:00,141.74000549316406,141.74000549316406,141.74000549316406,141.74000549316406,284,0.0,0.0
2025-04-17 10:21:00-04:00,141.77000427246094,141.77000427246094,141.75999450683594,141.77000427246094,534,0.0,0.0
2025-04-17 10:22:00-04:00,141.80499267578125,142.27000427246094,141.77999877929688,142.27000427246094,1549,0.0,0.0
2025-04-17 10:25:00-04:00,142.10000610351562,142.10000610351562,142.10000610351562,142.10000610351562,182,0.0,0.0
2025-04-17 10:26:00-04:00,142.44000244140625,142.44000244140625,142.44000244140625,142.44000244140625,147,0.0,0.0
2025-04-17 10:28:00-04:00,142.1999969482422,142.3800048828125,142.1999969482422,142.3800048828125,685,0.0,0.0
2025-04-17 10:30:00-04:00,142.47000122070312,142.47000122070312,142.47000122070312,142.47000122070312,217,0.0,0.0
2025-04-17 10:32:00-04:00,142.4949951171875,142.4949951171875,142.4949951171875,142.4949951171875,2979,0.0,0.0
2025-04-17 10:38:00-04:00,142.19000244140625,142.19000244140625,142.19000244140625,142.19000244140625,682,0.0,0.0
2025-04-17 10:40:00-04:00,142.17999267578125,142.17999267578125,142.17999267578125,142.17999267578125,625,0.0,0.0
2025-04-17 10:41:00-04:00,142.02999877929688,142.02999877929688,142.00999450683594,142.00999450683594,319,0.0,0.0
2025-04-17 10:42:00-04:00,142.10000610351562,142.10000610351562,142.10000610351562,142.10000610351562,294,0.0,0.0
2025-04-17 10:43:00-04:00,142.36000061035156,142.50999450683594,142.36000061035156,142.50999450683594,1064,0.0,0.0
2025-04-17 10:51:00-04:00,142.4949951171875,142.4949951171875,142.4949951171875,142.4949951171875,421,0.0,0.0
2025-04-17 10:53:00-04:00,142.7899932861328,142.7899932861328,142.7899932861328,142.7899932861328,363,0.0,0.0
2025-04-17 10:54:00-04:00,142.75,142.75,142.72500610351562,142.72500610351562,612,0.0,0.0
2025-04-17 10:57:00-04:00,142.52000427246094,142.52000427246094,142.3800048828125,142.40499877929688,1386,0.0,0.0
2025-04-17 11:00:00-04:00,142.24000549316406,142.6999969482422,142.24000549316406,142.6999969482422,301,0.0,0.0
2025-04-17 11:01:00-04:00,142.54249572753906,142.54249572753906,142.54249572753906,142.54249572753906,124,0.0,0.0
2025-04-17 11:02:00-04:00,142.27000427246094,142.27000427246094,142.27000427246094,142.27000427246094,147,0.0,0.0
2025-04-17 11:03:00-04:00,142.51400756835938,142.51400756835938,142.51400756835938,142.51400756835938,554,0.0,0.0
2025-04-17 11:05:00-04:00,142.9149932861328,142.9149932861328,142.9149932861328,142.9149932861328,436,0.0,0.0
2025-04-17 11:06:00-04:00,143.17999267578125,143.1999969482422,143.16000366210938,143.16000366210938,943,0.0,0.0
2025-04-17 11:10:00-04:00,142.99000549316406,142.99000549316406,142.99000549316406,142.99000549316406,561,0.0,0.0
2025-04-17 11:12:00-04:00,142.94659423828125,142.94659423828125,142.94659423828125,142.94659423828125,251,0.0,0.0
2025-04-17 11:14:00-04:00,143.1999969482422,143.1999969482422,143.06500244140625,143.06500244140625,857,0.0,0.0
2025-04-17 11:17:00-04:00,143.1199951171875,143.1199951171875,143.1199951171875,143.1199951171875,228,0.0,0.0
2025-04-17 11:18:00-04:00,143.10360717773438,143.10360717773438,143.10360717773438,143.10360717773438,411,0.0,0.0
2025-04-17 11:20:00-04:00,143.15499877929688,143.15499877929688,143.0500030517578,143.0500030517578,801,0.0,0.0
2025-04-17 11:24:00-04:00,143.11000061035156,143.8699951171875,143.11000061035156,143.8300018310547,7132,0.0,0.0
2025-04-17 11:26:00-04:00,143.7274932861328,143.7274932861328,143.7274932861328,143.7274932861328,711,0.0,0.0
2025-04-17 11:30:00-04:00,143.72500610351562,143.72500610351562,143.63999938964844,143.63999938964844,1617,0.0,0.0
2025-04-17 11:35:00-04:00,143.7449951171875,143.74749755859375,143.7449951171875,143.74749755859375,869,0.0,0.0
2025-04-17 11:36:00-04:00,143.63999938964844,143.75250244140625,143.6300048828125,143.75250244140625,1742,0.0,0.0
2025-04-17 11:40:00-04:00,144.02499389648438,144.02499389648438,144.02499389648438,144.02499389648438,513,0.0,0.0
2025-04-17 11:45:00-04:00,143.88999938964844,143.88999938964844,143.88999938964844,143.88999938964844,505,0.0,0.0
2025-04-17 11:50:00-04:00,143.6699981689453,143.6699981689453,143.66000366210938,143.66000366210938,327,0.0,0.0
2025-04-17 11:51:00-04:00,143.72500610351562,143.72500610351562,143.72500610351562,143.72500610351562,1225,0.0,0.0
2025-04-17 11:54:00-04:00,143.57000732421875,143.57000732421875,143.5399932861328,143.5399932861328,1742,0.0,0.0
2025-04-17 12:00:00-04:00,143.67999267578125,143.82000732421875,143.57000732421875,143.6300048828125,2646,0.0,0.0
2025-04-17 12:02:00-04:00,143.35000610351562,143.35000610351562,143.35000610351562,143.35000610351562,678,0.0,0.0
2025-04-17 12:05:00-04:00,143.60000610351562,143.60000610351562,143.60000610351562,143.60000610351562,488,0.0,0.0
2025-04-17 12:07:00-04:00,143.52999877929688,143.53500366210938,143.52999877929688,143.53500366210938,493,0.0,0.0
2025-04-17 12:08:00-04:00,143.5399932861328,143.5399932861328,143.5399932861328,143.5399932861328,218,0.0,0.0
2025-04-17 12:09:00-04:00,143.53500366210938,143.53500366210938,143.53500366210938,143.53500366210938,482,0.0,0.0
2025-04-17 12:11:00-04:00,143.2899932861328,143.2899932861328,143.2899932861328,143.2899932861328,407,0.0,0.0
2025-04-17 12:12:00-04:00,143.14999389648438,143.14999389648438,143.14999389648438,143.14999389648438,652,0.0,0.0
2025-04-17 12:13:00-04:00,143.49000549316406,143.55499267578125,143.49000549316406,143.55499267578125,1440,0.0,0.0
2025-04-17 12:14:00-04:00,143.60000610351562,143.60000610351562,143.60000610351562,143.60000610351562,488,0.0,0.0
2025-04-17 12:18:00-04:00,143.61500549316406,143.61500549316406,143.61500549316406,143.61500549316406,683,0.0,0.0
2025-04-17 12:19:00-04:00,143.58999633789062,143.58999633789062,143.58999633789062,143.58999633789062,649,0.0,0.0
2025-04-17 12:21:00-04:00,143.82000732421875,144.0800018310547,143.77000427246094,144.0399932861328,1775,0.0,0.0
2025-04-17 12:22:00-04:00,144.07000732421875,144.07000732421875,143.97000122070312,144.07000732421875,1370,0.0,0.0
2025-04-17 12:24:00-04:00,144.13999938964844,144.13999938964844,144.13999938964844,144.13999938964844,676,0.0,0.0
2025-04-17 12:28:00-04:00,144.06500244140625,144.06500244140625,144.06500244140625,144.06500244140625,152,0.0,0.0
2025-04-17 12:29:00-04:00,144.27999877929688,144.3000030517578,144.27999877929688,144.3000030517578,595,0.0,0.0
2025-04-17 12:30:00-04:00,144.16000366210938,144.19000244140625,144.0399932861328,144.0500030517578,1560,0.0,0.0
2025-04-17 12:33:00-04:00,144.1649932861328,144.38999938964844,144.1649932861328,144.38999938964844,1610,0.0,0.0
2025-04-17 12:43:00-04:00,143.9199981689453,143.9199981689453,143.82000732421875,143.82000732421875,1235,0.0,0.0
2025-04-17 12:47:00-04:00,144.16000366210938,144.16000366210938,144.14999389648438,144.14999389648438,598,0.0,0.0
2025-04-17 12:50:00-04:00,144.3300018310547,144.3300018310547,144.3300018310547,144.3300018310547,995,0.0,0.0
2025-04-17 12:55:00-04:00,144.38009643554688,144.38009643554688,144.38009643554688,144.38009643554688,232,0.0,0.0
2025-04-17 12:56:00-04:00,144.57000732421875,144.57000732421875,144.57000732421875,144.57000732421875,310,0.0,0.0
2025-04-17 12:57:00-04:00,144.42999267578125,144.42999267578125,144.36000061035156,144.36000061035156,1851,0.0,0.0
2025-04-17 13:00:00-04:00,144.40499877929688,144.40499877929688,144.40499877929688,144.40499877929688,950,0.0,0.0
2025-04-17 13:04:00-04:00,144.4199981689453,144.4199981689453,144.41000366210938,144.41000366210938,809,0.0,0.0
2025-04-17 13:09:00-04:00,144.63999938964844,144.63999938964844,144.63999938964844,144.63999938964844,206,0.0,0.0
2025-04-17 13:11:00-04:00,144.3000030517578,144.3000030517578,144.3000030517578,144.3000030517578,1269,0.0,0.0
2025-04-17 13:18:00-04:00,143.91000366210938,143.91000366210938,143.91000366210938,143.91000366210938,289,0.0,0.0
2025-04-17 13:19:00-04:00,143.8000030517578,143.8000030517578,143.8000030517578,143.8000030517578,291,0.0,0.0
2025-04-17 13:21:00-04:00,143.74000549316406,143.80999755859375,143.65530395507812,143.65530395507812,544,0.0,0.0
2025-04-17 13:24:00-04:00,143.6300048828125,144.10000610351562,143.6300048828125,144.00999450683594,1999,0.0,0.0
2025-04-17 13:25:00-04:00,144.11000061035156,144.11000061035156,144.11000061035156,144.11000061035156,430,0.0,0.0
2025-04-17 13:27:00-04:00,144.16929626464844,144.16929626464844,143.88999938964844,143.88999938964844,379,0.0,0.0
2025-04-17 13:28:00-04:00,143.89450073242188,143.89450073242188,143.89450073242188,143.89450073242188,169,0.0,0.0
2025-04-17 13:29:00-04:00,144.05999755859375,144.05999755859375,144.05999755859375,144.05999755859375,174,0.0,0.0
2025-04-17 13:30:00-04:00,144.0800018310547,144.0800018310547,144.0800018310547,144.0800018310547,201,0.0,0.0
2025-04-17 13:32:00-04:00,144.0800018310547,144.0800018310547,144.0800018310547,144.0800018310547,658,0.0,0.0
2025-04-17 13:33:00-04:00,144.0800018310547,144.10450744628906,144.0800018310547,144.0800018310547,990,0.0,0.0
2025-04-17 13:34:00-04:00,144.0800018310547,144.25999450683594,144.0800018310547,144.25999450683594,1364,0.0,0.0
2025-04-17 13:36:00-04:00,144.2899932861328,144.2899932861328,144.2899932861328,144.2899932861328,350,0.0,0.0
2025-04-17 13:41:00-04:00,144.2949981689453,144.2949981689453,144.2949981689453,144.2949981689453,167,0.0,0.0
2025-04-17 13:44:00-04:00,144.41000366210938,144.41000366210938,144.30499267578125,144.30499267578125,803,0.0,0.0
2025-04-17 13:46:00-04:00,144.35000610351562,144.35000610351562,144.35000610351562,144.35000610351562,616,0.0,0.0
2025-04-17 13:48:00-04:00,144.63999938964844,144.6699981689453,144.57000732421875,144.57000732421875,1280,0.0,0.0
2025-04-17 13:49:00-04:00,144.47999572753906,144.47999572753906,144.4550018310547,144.45750427246094,1276,0.0,0.0
2025-04-17 13:50:00-04:00,144.32009887695312,144.44500732421875,144.32009887695312,144.44500732421875,448,0.0,0.0
2025-04-17 13:51:00-04:00,144.63999938964844,144.63999938964844,144.63999938964844,144.63999938964844,569,0.0,0.0
2025-04-17 13:54:00-04:00,144.69500732421875,144.69500732421875,144.69500732421875,144.69500732421875,660,0.0,0.0
2025-04-17 13:56:00-04:00,144.6999969482422,144.6999969482422,144.6999969482422,144.6999969482422,714,0.0,0.0
2025-04-17 14:00:00-04:00,144.7050018310547,144.7050018310547,144.7050018310547,144.7050018310547,373,0.0,0.0
2025-04-17 14:05:00-04:00,144.85000610351562,144.85000610351562,144.82249450683594,144.82249450683594,485,0.0,0.0
2025-04-17 14:07:00-04:00,144.8249969482422,144.8249969482422,144.8175048828125,144.8249969482422,792,0.0,0.0
2025-04-17 14:08:00-04:00,144.8800048828125,144.8800048828125,144.8800048828125,144.8800048828125,219,0.0,0.0
2025-04-17 14:10:00-04:00,144.8874969482422,145.02000427246094,144.8874969482422,145.02000427246094,529,0.0,0.0
2025-04-17 14:11:00-04:00,145.0,145.16000366210938,144.7100067138672,144.7100067138672,16372,0.0,0.0
2025-04-17 14:13:00-04:00,144.55999755859375,144.55999755859375,144.55999755859375,144.55999755859375,323,0.0,0.0
2025-04-17 14:14:00-04:00,144.49009704589844,144.49009704589844,144.49009704589844,144.49009704589844,615,0.0,0.0
2025-04-17 14:15:00-04:00,144.49009704589844,144.68499755859375,144.49009704589844,144.68499755859375,2990,0.0,0.0
2025-04-17 14:16:00-04:00,144.68499755859375,144.68499755859375,144.68499755859375,144.68499755859375,458,0.0,0.0
2025-04-17 14:18:00-04:00,144.7899932861328,144.97999572753906,144.7899932861328,144.97999572753906,2794,0.0,0.0
2025-04-17 14:19:00-04:00,144.91000366210938,144.91000366210938,144.86749267578125,144.86749267578125,677,0.0,0.0
2025-04-17 14:20:00-04:00,144.75,144.75,144.75,144.75,520,0.0,0.0
2025-04-17 14:23:00-04:00,144.80999755859375,144.80999755859375,144.80999755859375,144.80999755859375,572,0.0,0.0
2025-04-17 14:27:00-04:00,144.77000427246094,144.77000427246094,144.77000427246094,144.77000427246094,781,0.0,0.0
2025-04-17 14:29:00-04:00,144.63999938964844,144.63999938964844,144.61000061035156,144.61000061035156,486,0.0,0.0
2025-04-17 14:31:00-04:00,144.67999267578125,144.67999267578125,144.5399932861328,144.5399932861328,612,0.0,0.0
2025-04-17 14:33:00-04:00,144.52000427246094,144.52000427246094,144.52000427246094,144.52000427246094,112,0.0,0.0
2025-04-17 14:34:00-04:00,144.59500122070312,144.59500122070312,144.59500122070312,144.59500122070312,232,0.0,0.0
2025-04-17 14:37:00-04:00,144.4199981689453,144.4199981689453,144.4199981689453,144.4199981689453,491,0.0,0.0
2025-04-17 14:39:00-04:00,144.59500122070312,144.76499938964844,144.59500122070312,144.76499938964844,845,0.0,0.0
2025-04-17 14:40:00-04:00,144.66000366210938,144.66000366210938,144.64999389648438,144.64999389648438,424,0.0,0.0
2025-04-17 14:41:00-04:00,144.68820190429688,144.68820190429688,144.64500427246094,144.64500427246094,366,0.0,0.0
2025-04-17 14:42:00-04:00,144.6300048828125,144.6300048828125,144.6300048828125,144.6300048828125,721,0.0,0.0
2025-04-17 14:46:00-04:00,144.6999969482422,144.7899932861328,144.61000061035156,144.68499755859375,4584,0.0,0.0
2025-04-17 14:49:00-04:00,144.83999633789062,144.83999633789062,144.77499389648438,144.77499389648438,256,0.0,0.0
2025-04-17 14:50:00-04:00,144.7100067138672,144.7100067138672,144.5399932861328,144.60000610351562,2680,0.0,0.0
2025-04-17 14:51:00-04:00,144.69549560546875,144.83999633789062,144.67999267578125,144.83999633789062,983,0.0,0.0
2025-04-17 14:52:00-04:00,144.9375,144.9375,144.9375,144.9375,378,0.0,0.0
2025-04-17 14:53:00-04:00,144.97999572753906,144.97999572753906,144.97999572753906,144.97999572753906,211,0.0,0.0
2025-04-17 14:54:00-04:00,145.05999755859375,145.05999755859375,145.05999755859375,145.05999755859375,390,0.0,0.0
2025-04-17 14:56:00-04:00,144.8300018310547,144.83999633789062,144.7899932861328,144.8300018310547,1432,0.0,0.0
2025-04-17 14:57:00-04:00,144.88999938964844,144.88999938964844,144.88999938964844,144.88999938964844,140,0.0,0.0
2025-04-17 14:59:00-04:00,144.91000366210938,144.91000366210938,144.75999450683594,144.75999450683594,647,0.0,0.0
2025-04-17 15:02:00-04:00,144.66000366210938,144.66000366210938,144.66000366210938,144.66000366210938,1338,0.0,0.0
2025-04-17 15:05:00-04:00,144.5399932861328,144.5399932861328,144.52000427246094,144.52000427246094,451,0.0,0.0
2025-04-17 15:06:00-04:00,144.3800048828125,144.3800048828125,144.3800048828125,144.3800048828125,181,0.0,0.0
2025-04-17 15:07:00-04:00,144.36000061035156,144.52000427246094,144.36000061035156,144.52000427246094,1541,0.0,0.0
2025-04-17 15:08:00-04:00,144.35000610351562,144.35000610351562,144.3000030517578,144.3000030517578,947,0.0,0.0
2025-04-17 15:09:00-04:00,144.3000030517578,144.3000030517578,144.3000030517578,144.3000030517578,178,0.0,0.0
2025-04-17 15:10:00-04:00,144.3000030517578,144.35000610351562,144.2899932861328,144.35000610351562,1379,0.0,0.0
2025-04-17 15:14:00-04:00,144.1199951171875,144.1199951171875,144.1199951171875,144.1199951171875,460,0.0,0.0
2025-04-17 15:15:00-04:00,144.05999755859375,144.05999755859375,144.05999755859375,144.05999755859375,623,0.0,0.0
2025-04-17 15:17:00-04:00,144.08999633789062,144.16000366210938,144.08999633789062,144.16000366210938,1021,0.0,0.0
2025-04-17 15:18:00-04:00,144.22999572753906,144.2899932861328,144.22999572753906,144.2899932861328,422,0.0,0.0
2025-04-17 15:19:00-04:00,144.36000061035156,144.36000061035156,144.25,144.25,1601,0.0,0.0
2025-04-17 15:21:00-04:00,144.14999389648438,144.14999389648438,144.0500030517578,144.0500030517578,1298,0.0,0.0
2025-04-17 15:23:00-04:00,144.09500122070312,144.14999389648438,144.09500122070312,144.14999389648438,1383,0.0,0.0
2025-04-17 15:24:00-04:00,144.25999450683594,144.38999938964844,144.25999450683594,144.38999938964844,1592,0.0,0.0
2025-04-17 15:26:00-04:00,144.13999938964844,144.2100067138672,144.13999938964844,144.2100067138672,9893,0.0,0.0
2025-04-17 15:30:00-04:00,144.1300048828125,144.22500610351562,144.1300048828125,144.22500610351562,853,0.0,0.0
2025-04-17 15:31:00-04:00,144.2949981689453,144.39999389648438,144.2949981689453,144.3300018310547,931,0.0,0.0
2025-04-17 15:32:00-04:00,144.35000610351562,144.35000610351562,144.25999450683594,144.25999450683594,1108,0.0,0.0
2025-04-17 15:35:00-04:00,144.22000122070312,144.2550048828125,144.22000122070312,144.2550048828125,1422,0.0,0.0
2025-04-17 15:36:00-04:00,144.32000732421875,144.35000610351562,143.99000549316406,144.00999450683594,7522,0.0,0.0
2025-04-17 15:37:00-04:00,143.91000366210938,143.91000366210938,143.77499389648438,143.77499389648438,2569,0.0,0.0
2025-04-17 15:38:00-04:00,143.7899932861328,143.7899932861328,143.7899932861328,143.7899932861328,552,0.0,0.0
2025-04-17 15:39:00-04:00,143.92999267578125,144.02999877929688,143.91000366210938,144.02999877929688,4029,0.0,0.0
2025-04-17 15:40:00-04:00,144.00999450683594,144.00999450683594,143.89999389648438,143.89999389648438,1100,0.0,0.0
2025-04-17 15:41:00-04:00,143.9199981689453,143.9199981689453,143.83999633789062,143.83999633789062,774,0.0,0.0
2025-04-17 15:42:00-04:00,144.0,144.14999389648438,143.92999267578125,144.14999389648438,3378,0.0,0.0
2025-04-17 15:44:00-04:00,143.97000122070312,144.0800018310547,143.97000122070312,144.0800018310547,2017,0.0,0.0
2025-04-17 15:45:00-04:00,144.03500366210938,144.03500366210938,144.03500366210938,144.03500366210938,219,0.0,0.0
2025-04-17 15:46:00-04:00,144.1300048828125,144.1300048828125,144.11000061035156,144.1300048828125,818,0.0,0.0
2025-04-17 15:47:00-04:00,144.05999755859375,144.05999755859375,144.02999877929688,144.02999877929688,1994,0.0,0.0
2025-04-17 15:48:00-04:00,144.00999450683594,144.00999450683594,143.97500610351562,143.9824981689453,1217,0.0,0.0
2025-04-17 15:49:00-04:00,144.02000427246094,144.02999877929688,143.875,143.875,3321,0.0,0.0
2025-04-17 15:50:00-04:00,143.73500061035156,143.77749633789062,143.73500061035156,143.77749633789062,1170,0.0,0.0
2025-04-17 15:51:00-04:00,143.63999938964844,143.63999938964844,143.6300048828125,143.63499450683594,1173,0.0,0.0
2025-04-17 15:52:00-04:00,143.66749572753906,143.83999633789062,143.66749572753906,143.83999633789062,3240,0.0,0.0
2025-04-17 15:53:00-04:00,143.85499572753906,143.9499969482422,143.80999755859375,143.8800048828125,3923,0.0,0.0
2025-04-17 15:54:00-04:00,144.02999877929688,144.27000427246094,144.02999877929688,144.27000427246094,2754,0.0,0.0
2025-04-17 15:55:00-04:00,144.0500030517578,144.0500030517578,143.89999389648438,143.89999389648438,1512,0.0,0.0
2025-04-17 15:56:00-04:00,143.83999633789062,143.89999389648438,143.74000549316406,143.74000549316406,5043,0.0,0.0
2025-04-17 15:57:00-04:00,143.8800048828125,143.94749450683594,143.8800048828125,143.90499877929688,2544,0.0,0.0
2025-04-17 15:58:00-04:00,143.92999267578125,143.97000122070312,143.86749267578125,143.90249633789062,6437,0.0,0.0
2025-04-17 15:59:00-04:00,143.86000061035156,143.92999267578125,143.69000244140625,143.75,13708,0.0,0.0
