Datetime,Open,High,Low,Close,Volume,Dividends,Stock Splits
2024-08-12 09:30:00-04:00,143.97000122070312,143.97000122070312,143.97000122070312,143.97000122070312,3689,0.0,0.0
2024-08-12 09:36:00-04:00,143.5850067138672,143.5850067138672,143.5850067138672,143.5850067138672,128,0.0,0.0
2024-08-12 09:37:00-04:00,143.89999389648438,143.89999389648438,143.89999389648438,143.89999389648438,662,0.0,0.0
2024-08-12 09:47:00-04:00,143.5,143.5,143.5,143.5,430,0.0,0.0
2024-08-12 09:50:00-04:00,143.2899932861328,143.39999389648438,143.24000549316406,143.39999389648438,1645,0.0,0.0
2024-08-12 09:56:00-04:00,143.11000061035156,143.32000732421875,142.8800048828125,143.06500244140625,2999,0.0,0.0
2024-08-12 09:58:00-04:00,143.1999969482422,143.27000427246094,143.10000610351562,143.125,1256,0.0,0.0
2024-08-12 10:00:00-04:00,142.97999572753906,142.97999572753906,142.77000427246094,142.8699951171875,794,0.0,0.0
2024-08-12 10:02:00-04:00,142.99000549316406,142.99000549316406,142.99000549316406,142.99000549316406,114,0.0,0.0
2024-08-12 10:03:00-04:00,142.9550018310547,142.9550018310547,142.9550018310547,142.9550018310547,747,0.0,0.0
2024-08-12 10:04:00-04:00,142.94259643554688,142.94259643554688,142.94259643554688,142.94259643554688,610,0.0,0.0
2024-08-12 10:05:00-04:00,142.9199981689453,142.9199981689453,142.9199981689453,142.9199981689453,426,0.0,0.0
2024-08-12 10:07:00-04:00,143.0500030517578,143.2100067138672,142.89999389648438,142.89999389648438,1598,0.0,0.0
2024-08-12 10:08:00-04:00,142.83999633789062,142.89999389648438,142.83999633789062,142.89999389648438,264,0.0,0.0
2024-08-12 10:10:00-04:00,142.94000244140625,142.94000244140625,142.94000244140625,142.94000244140625,348,0.0,0.0
2024-08-12 10:12:00-04:00,142.9600067138672,143.08999633789062,142.91000366210938,143.08999633789062,2451,0.0,0.0
2024-08-12 10:13:00-04:00,143.0175018310547,143.0175018310547,143.0175018310547,143.0175018310547,345,0.0,0.0
2024-08-12 10:14:00-04:00,142.89999389648438,142.94000244140625,142.89999389648438,142.94000244140625,802,0.0,0.0
2024-08-12 10:15:00-04:00,142.97999572753906,143.14999389648438,142.85000610351562,142.85000610351562,10108,0.0,0.0
2024-08-12 10:16:00-04:00,142.88999938964844,143.21499633789062,142.88999938964844,143.08999633789062,6506,0.0,0.0
2024-08-12 10:18:00-04:00,143.0500030517578,143.0500030517578,143.0500030517578,143.0500030517578,313,0.0,0.0
2024-08-12 10:19:00-04:00,143.0800018310547,143.0800018310547,143.07000732421875,143.0749969482422,387,0.0,0.0
2024-08-12 10:20:00-04:00,143.07000732421875,143.0800018310547,142.99000549316406,142.9949951171875,2617,0.0,0.0
2024-08-12 10:27:00-04:00,143.4199981689453,143.4199981689453,143.4199981689453,143.4199981689453,296,0.0,0.0
2024-08-12 10:28:00-04:00,143.4550018310547,143.4550018310547,143.4550018310547,143.4550018310547,595,0.0,0.0
2024-08-12 10:31:00-04:00,143.52999877929688,143.52999877929688,143.52999877929688,143.52999877929688,531,0.0,0.0
2024-08-12 10:34:00-04:00,143.41000366210938,143.41000366210938,143.41000366210938,143.41000366210938,510,0.0,0.0
2024-08-12 10:39:00-04:00,143.5800018310547,143.5800018310547,143.55499267578125,143.55499267578125,953,0.0,0.0
2024-08-12 10:41:00-04:00,143.66000366210938,143.6699981689453,143.66000366210938,143.6699981689453,1051,0.0,0.0
2024-08-12 10:46:00-04:00,143.8000030517578,143.8000030517578,143.8000030517578,143.8000030517578,726,0.0,0.0
2024-08-12 10:49:00-04:00,143.8300018310547,143.8300018310547,143.8300018310547,143.8300018310547,480,0.0,0.0
2024-08-12 10:57:00-04:00,144.13999938964844,144.13999938964844,144.13999938964844,144.13999938964844,220,0.0,0.0
2024-08-12 10:58:00-04:00,144.08999633789062,144.08999633789062,144.08999633789062,144.08999633789062,122,0.0,0.0
2024-08-12 10:59:00-04:00,144.17999267578125,144.17999267578125,144.17999267578125,144.17999267578125,474,0.0,0.0
2024-08-12 11:04:00-04:00,144.13999938964844,144.13999938964844,143.89999389648438,143.89999389648438,1762,0.0,0.0
2024-08-12 11:07:00-04:00,144.18069458007812,144.18069458007812,144.13999938964844,144.13999938964844,492,0.0,0.0
2024-08-12 11:09:00-04:00,143.97999572753906,143.97999572753906,143.8800048828125,143.8800048828125,592,0.0,0.0
2024-08-12 11:10:00-04:00,143.91000366210938,143.91000366210938,143.91000366210938,143.91000366210938,985,0.0,0.0
2024-08-12 11:20:00-04:00,143.52499389648438,143.52499389648438,143.52499389648438,143.52499389648438,121,0.0,0.0
2024-08-12 11:21:00-04:00,143.5449981689453,143.5449981689453,143.5449981689453,143.5449981689453,514,0.0,0.0
2024-08-12 11:24:00-04:00,143.42999267578125,143.42999267578125,143.36000061035156,143.4199981689453,1001,0.0,0.0
2024-08-12 11:34:00-04:00,143.3800048828125,143.3800048828125,143.3800048828125,143.3800048828125,682,0.0,0.0
2024-08-12 11:35:00-04:00,143.30999755859375,143.30999755859375,143.28199768066406,143.28199768066406,973,0.0,0.0
2024-08-12 11:39:00-04:00,143.3300018310547,143.41000366210938,143.22000122070312,143.22000122070312,1649,0.0,0.0
2024-08-12 11:51:00-04:00,143.36000061035156,143.36000061035156,143.35000610351562,143.35000610351562,376,0.0,0.0
2024-08-12 11:52:00-04:00,143.47999572753906,143.47999572753906,143.47999572753906,143.47999572753906,229,0.0,0.0
2024-08-12 11:54:00-04:00,143.5,143.5,143.47999572753906,143.47999572753906,922,0.0,0.0
2024-08-12 11:56:00-04:00,143.49000549316406,143.5050048828125,143.49000549316406,143.5050048828125,696,0.0,0.0
2024-08-12 11:58:00-04:00,143.5,143.5,143.5,143.5,266,0.0,0.0
2024-08-12 11:59:00-04:00,143.49000549316406,143.49000549316406,143.49000549316406,143.49000549316406,268,0.0,0.0
2024-08-12 12:04:00-04:00,143.6300048828125,143.6300048828125,143.6300048828125,143.6300048828125,100,0.0,0.0
2024-08-12 12:05:00-04:00,143.52499389648438,143.52499389648438,143.52499389648438,143.52499389648438,189,0.0,0.0
2024-08-12 12:06:00-04:00,143.4199981689453,143.4199981689453,143.41000366210938,143.41000366210938,337,0.0,0.0
2024-08-12 12:08:00-04:00,143.5,143.50999450683594,143.5,143.50999450683594,630,0.0,0.0
2024-08-12 12:10:00-04:00,143.41000366210938,143.41000366210938,143.39999389648438,143.40499877929688,910,0.0,0.0
2024-08-12 12:19:00-04:00,143.5,143.5,143.4199981689453,143.4199981689453,891,0.0,0.0
2024-08-12 12:21:00-04:00,143.40499877929688,143.40499877929688,143.40499877929688,143.40499877929688,622,0.0,0.0
2024-08-12 12:27:00-04:00,143.3300018310547,143.3300018310547,143.3300018310547,143.3300018310547,287,0.0,0.0
2024-08-12 12:28:00-04:00,143.3300018310547,143.3300018310547,143.3300018310547,143.3300018310547,264,0.0,0.0
2024-08-12 12:29:00-04:00,143.1999969482422,143.1999969482422,143.1999969482422,143.1999969482422,434,0.0,0.0
2024-08-12 12:31:00-04:00,143.27000427246094,143.27000427246094,143.25999450683594,143.27000427246094,928,0.0,0.0
2024-08-12 12:38:00-04:00,143.22000122070312,143.22000122070312,143.22000122070312,143.22000122070312,866,0.0,0.0
2024-08-12 12:43:00-04:00,143.2899932861328,143.2899932861328,143.2899932861328,143.2899932861328,284,0.0,0.0
2024-08-12 12:46:00-04:00,143.38499450683594,143.38499450683594,143.38499450683594,143.38499450683594,690,0.0,0.0
2024-08-12 12:47:00-04:00,143.1999969482422,143.22000122070312,143.1999969482422,143.22000122070312,568,0.0,0.0
2024-08-12 12:49:00-04:00,143.10000610351562,143.10000610351562,143.10000610351562,143.10000610351562,167,0.0,0.0
2024-08-12 12:51:00-04:00,143.05999755859375,143.07000732421875,143.05999755859375,143.07000732421875,520,0.0,0.0
2024-08-12 12:53:00-04:00,143.10000610351562,143.10000610351562,143.10000610351562,143.10000610351562,579,0.0,0.0
2024-08-12 12:57:00-04:00,143.07000732421875,143.07000732421875,143.07000732421875,143.07000732421875,110,0.0,0.0
2024-08-12 12:58:00-04:00,143.07000732421875,143.07000732421875,143.07000732421875,143.07000732421875,666,0.0,0.0
2024-08-12 13:00:00-04:00,143.0,143.0,143.0,143.0,396,0.0,0.0
2024-08-12 13:04:00-04:00,143.0050048828125,143.0050048828125,143.0050048828125,143.0050048828125,668,0.0,0.0
2024-08-12 13:11:00-04:00,143.0050048828125,143.0050048828125,143.0050048828125,143.0050048828125,386,0.0,0.0
2024-08-12 13:13:00-04:00,143.0,143.13999938964844,143.0,143.13999938964844,2608,0.0,0.0
2024-08-12 13:15:00-04:00,143.28500366210938,143.28500366210938,143.28500366210938,143.28500366210938,452,0.0,0.0
2024-08-12 13:17:00-04:00,143.33999633789062,143.33999633789062,143.33999633789062,143.33999633789062,130,0.0,0.0
2024-08-12 13:20:00-04:00,143.44000244140625,143.44000244140625,143.44000244140625,143.44000244140625,111,0.0,0.0
2024-08-12 13:21:00-04:00,143.5,143.52000427246094,143.4199981689453,143.4199981689453,3664,0.0,0.0
2024-08-12 13:23:00-04:00,143.39999389648438,143.39999389648438,143.39999389648438,143.39999389648438,484,0.0,0.0
2024-08-12 13:26:00-04:00,143.3300018310547,143.3300018310547,143.3300018310547,143.3300018310547,348,0.0,0.0
2024-08-12 13:29:00-04:00,143.3699951171875,143.3699951171875,143.3699951171875,143.3699951171875,196,0.0,0.0
2024-08-12 13:34:00-04:00,143.5,143.5,143.5,143.5,152,0.0,0.0
2024-08-12 13:36:00-04:00,143.5251007080078,143.5251007080078,143.5251007080078,143.5251007080078,629,0.0,0.0
2024-08-12 13:38:00-04:00,143.41000366210938,143.4149932861328,143.35000610351562,143.35009765625,2142,0.0,0.0
2024-08-12 13:42:00-04:00,143.47999572753906,143.47999572753906,143.47999572753906,143.47999572753906,523,0.0,0.0
2024-08-12 13:50:00-04:00,143.3699951171875,143.3699951171875,143.36000061035156,143.3699951171875,1127,0.0,0.0
2024-08-12 13:52:00-04:00,143.2050018310547,143.2050018310547,143.2050018310547,143.2050018310547,174,0.0,0.0
2024-08-12 13:57:00-04:00,143.1999969482422,143.1999969482422,143.1999969482422,143.1999969482422,118,0.0,0.0
2024-08-12 13:59:00-04:00,143.3000030517578,143.3000030517578,143.3000030517578,143.3000030517578,245,0.0,0.0
2024-08-12 14:00:00-04:00,143.22999572753906,143.22999572753906,143.22999572753906,143.22999572753906,338,0.0,0.0
2024-08-12 14:02:00-04:00,143.30999755859375,143.30999755859375,143.30999755859375,143.30999755859375,157,0.0,0.0
2024-08-12 14:03:00-04:00,143.47999572753906,143.47999572753906,143.47999572753906,143.47999572753906,899,0.0,0.0
2024-08-12 14:06:00-04:00,143.47000122070312,143.47000122070312,143.47000122070312,143.47000122070312,143,0.0,0.0
2024-08-12 14:08:00-04:00,143.33999633789062,143.44000244140625,143.33999633789062,143.44000244140625,547,0.0,0.0
2024-08-12 14:11:00-04:00,143.47000122070312,143.47000122070312,143.47000122070312,143.47000122070312,168,0.0,0.0
2024-08-12 14:12:00-04:00,143.4199981689453,143.4199981689453,143.4199981689453,143.4199981689453,342,0.0,0.0
2024-08-12 14:13:00-04:00,143.52999877929688,143.52999877929688,143.52999877929688,143.52999877929688,260,0.0,0.0
2024-08-12 14:14:00-04:00,143.5,143.53500366210938,143.5,143.53500366210938,2956,0.0,0.0
2024-08-12 14:15:00-04:00,143.52999877929688,143.53500366210938,143.5,143.53500366210938,956,0.0,0.0
2024-08-12 14:16:00-04:00,143.55999755859375,143.74000549316406,143.52999877929688,143.74000549316406,732,0.0,0.0
2024-08-12 14:19:00-04:00,143.60000610351562,143.61000061035156,143.58999633789062,143.60000610351562,1179,0.0,0.0
2024-08-12 14:20:00-04:00,143.6699981689453,143.6699981689453,143.6699981689453,143.6699981689453,441,0.0,0.0
2024-08-12 14:24:00-04:00,143.5800018310547,143.58999633789062,143.5800018310547,143.5800018310547,599,0.0,0.0
2024-08-12 14:25:00-04:00,143.5800018310547,143.5800018310547,143.55499267578125,143.55499267578125,1205,0.0,0.0
2024-08-12 14:27:00-04:00,143.47000122070312,143.47000122070312,143.47000122070312,143.47000122070312,303,0.0,0.0
2024-08-12 14:29:00-04:00,143.4600067138672,143.52999877929688,143.4600067138672,143.52999877929688,312,0.0,0.0
2024-08-12 14:30:00-04:00,143.53500366210938,143.53500366210938,143.53500366210938,143.53500366210938,205,0.0,0.0
2024-08-12 14:33:00-04:00,143.5850067138672,143.5850067138672,143.5850067138672,143.5850067138672,473,0.0,0.0
2024-08-12 14:34:00-04:00,143.66000366210938,143.66000366210938,143.52999877929688,143.5399932861328,1481,0.0,0.0
2024-08-12 14:37:00-04:00,143.61000061035156,143.61000061035156,143.61000061035156,143.61000061035156,232,0.0,0.0
2024-08-12 14:38:00-04:00,143.6199951171875,143.6199951171875,143.6199951171875,143.6199951171875,226,0.0,0.0
2024-08-12 14:39:00-04:00,143.61500549316406,143.61500549316406,143.61500549316406,143.61500549316406,211,0.0,0.0
2024-08-12 14:40:00-04:00,143.7100067138672,143.7100067138672,143.65499877929688,143.65499877929688,360,0.0,0.0
2024-08-12 14:42:00-04:00,143.77000427246094,143.77000427246094,143.69000244140625,143.69000244140625,230,0.0,0.0
2024-08-12 14:43:00-04:00,143.69000244140625,143.69000244140625,143.69000244140625,143.69000244140625,141,0.0,0.0
2024-08-12 14:44:00-04:00,143.8699951171875,143.8699951171875,143.8699951171875,143.8699951171875,129,0.0,0.0
2024-08-12 14:45:00-04:00,143.74000549316406,143.74000549316406,143.74000549316406,143.74000549316406,691,0.0,0.0
2024-08-12 14:48:00-04:00,143.77000427246094,143.77000427246094,143.77000427246094,143.77000427246094,337,0.0,0.0
2024-08-12 14:49:00-04:00,143.6999969482422,143.7100067138672,143.69000244140625,143.69000244140625,1101,0.0,0.0
2024-08-12 14:50:00-04:00,143.72999572753906,143.72999572753906,143.72999572753906,143.72999572753906,115,0.0,0.0
2024-08-12 14:51:00-04:00,143.72999572753906,143.72999572753906,143.72999572753906,143.72999572753906,284,0.0,0.0
2024-08-12 14:53:00-04:00,143.77999877929688,143.80999755859375,143.7550048828125,143.80999755859375,983,0.0,0.0
2024-08-12 14:54:00-04:00,143.8000030517578,143.8000030517578,143.8000030517578,143.8000030517578,107,0.0,0.0
2024-08-12 14:55:00-04:00,143.8000030517578,143.8000030517578,143.77499389648438,143.77499389648438,577,0.0,0.0
2024-08-12 14:56:00-04:00,143.72999572753906,143.72999572753906,143.72999572753906,143.72999572753906,202,0.0,0.0
2024-08-12 14:57:00-04:00,143.77999877929688,143.77999877929688,143.63499450683594,143.63499450683594,2003,0.0,0.0
2024-08-12 15:02:00-04:00,143.61500549316406,143.61500549316406,143.61500549316406,143.61500549316406,137,0.0,0.0
2024-08-12 15:03:00-04:00,143.5749969482422,143.5749969482422,143.5749969482422,143.5749969482422,140,0.0,0.0
2024-08-12 15:04:00-04:00,143.52000427246094,143.52000427246094,143.52000427246094,143.52000427246094,634,0.0,0.0
2024-08-12 15:08:00-04:00,143.52000427246094,143.52000427246094,143.44000244140625,143.44000244140625,1202,0.0,0.0
2024-08-12 15:09:00-04:00,143.55999755859375,143.65499877929688,143.52000427246094,143.65499877929688,2764,0.0,0.0
2024-08-12 15:10:00-04:00,143.75999450683594,143.75999450683594,143.75999450683594,143.75999450683594,239,0.0,0.0
2024-08-12 15:11:00-04:00,143.77499389648438,143.77499389648438,143.77499389648438,143.77499389648438,160,0.0,0.0
2024-08-12 15:12:00-04:00,143.8699951171875,143.8699951171875,143.8699951171875,143.8699951171875,149,0.0,0.0
2024-08-12 15:13:00-04:00,143.9499969482422,143.9499969482422,143.75,143.7899932861328,1509,0.0,0.0
2024-08-12 15:15:00-04:00,143.7100067138672,143.83999633789062,143.6999969482422,143.83999633789062,1625,0.0,0.0
2024-08-12 15:16:00-04:00,143.75999450683594,143.75999450683594,143.6699981689453,143.75,1763,0.0,0.0
2024-08-12 15:18:00-04:00,143.72999572753906,143.72999572753906,143.6999969482422,143.6999969482422,1199,0.0,0.0
2024-08-12 15:21:00-04:00,143.6999969482422,143.72500610351562,143.6999969482422,143.71249389648438,1027,0.0,0.0
2024-08-12 15:22:00-04:00,143.6999969482422,143.72999572753906,143.6999969482422,143.72999572753906,400,0.0,0.0
2024-08-12 15:23:00-04:00,143.63999938964844,143.63999938964844,143.63999938964844,143.63999938964844,1256,0.0,0.0
2024-08-12 15:24:00-04:00,143.6750030517578,143.7050018310547,143.6750030517578,143.6999969482422,1312,0.0,0.0
2024-08-12 15:25:00-04:00,143.6999969482422,143.8000030517578,143.69500732421875,143.72999572753906,2967,0.0,0.0
2024-08-12 15:26:00-04:00,143.80999755859375,143.91000366210938,143.7899932861328,143.91000366210938,2615,0.0,0.0
2024-08-12 15:27:00-04:00,143.80999755859375,143.80999755859375,143.80999755859375,143.80999755859375,238,0.0,0.0
2024-08-12 15:28:00-04:00,143.7100067138672,143.7100067138672,143.7100067138672,143.7100067138672,361,0.0,0.0
2024-08-12 15:29:00-04:00,143.6300048828125,143.6300048828125,143.60000610351562,143.60000610351562,684,0.0,0.0
2024-08-12 15:30:00-04:00,143.58999633789062,143.6199951171875,143.5709991455078,143.6199951171875,844,0.0,0.0
2024-08-12 15:32:00-04:00,143.77000427246094,143.77000427246094,143.75,143.77000427246094,2649,0.0,0.0
2024-08-12 15:33:00-04:00,143.6909942626953,143.6909942626953,143.6909942626953,143.6909942626953,163,0.0,0.0
2024-08-12 15:34:00-04:00,143.8300018310547,143.8300018310547,143.75999450683594,143.75999450683594,566,0.0,0.0
2024-08-12 15:35:00-04:00,143.80999755859375,143.80999755859375,143.80999755859375,143.80999755859375,265,0.0,0.0
2024-08-12 15:36:00-04:00,143.81930541992188,143.8300018310547,143.75,143.78500366210938,2631,0.0,0.0
2024-08-12 15:38:00-04:00,143.72999572753906,143.7899932861328,143.6699981689453,143.6699981689453,954,0.0,0.0
2024-08-12 15:40:00-04:00,143.64999389648438,143.66000366210938,143.61500549316406,143.66000366210938,1549,0.0,0.0
2024-08-12 15:41:00-04:00,143.57000732421875,143.61000061035156,143.57000732421875,143.57000732421875,840,0.0,0.0
2024-08-12 15:42:00-04:00,143.55999755859375,143.55999755859375,143.55499267578125,143.55499267578125,1609,0.0,0.0
2024-08-12 15:43:00-04:00,143.55499267578125,143.55499267578125,143.5500030517578,143.5500030517578,647,0.0,0.0
2024-08-12 15:44:00-04:00,143.50999450683594,143.50999450683594,143.4600067138672,143.46099853515625,1877,0.0,0.0
2024-08-12 15:45:00-04:00,143.4600067138672,143.4600067138672,143.4600067138672,143.4600067138672,237,0.0,0.0
2024-08-12 15:46:00-04:00,143.39999389648438,143.42999267578125,143.39999389648438,143.41000366210938,1512,0.0,0.0
2024-08-12 15:47:00-04:00,143.4199981689453,143.4199981689453,143.36500549316406,143.36500549316406,1143,0.0,0.0
2024-08-12 15:49:00-04:00,143.32000732421875,143.33999633789062,143.27000427246094,143.27499389648438,2064,0.0,0.0
2024-08-12 15:50:00-04:00,143.39999389648438,143.4199981689453,143.39999389648438,143.41000366210938,2456,0.0,0.0
2024-08-12 15:51:00-04:00,143.44500732421875,143.58999633789062,143.44500732421875,143.49000549316406,2738,0.0,0.0
2024-08-12 15:52:00-04:00,143.49000549316406,143.49000549316406,143.30999755859375,143.30999755859375,3028,0.0,0.0
2024-08-12 15:53:00-04:00,143.2790069580078,143.2899932861328,143.27000427246094,143.27000427246094,898,0.0,0.0
2024-08-12 15:54:00-04:00,143.27000427246094,143.27000427246094,143.27000427246094,143.27000427246094,2197,0.0,0.0
2024-08-12 15:55:00-04:00,143.24000549316406,143.2899932861328,143.1750030517578,143.2899932861328,5835,0.0,0.0
2024-08-12 15:56:00-04:00,143.30499267578125,143.44500732421875,143.27999877929688,143.44500732421875,3265,0.0,0.0
2024-08-12 15:57:00-04:00,143.4550018310547,143.4550018310547,143.39999389648438,143.42999267578125,5305,0.0,0.0
2024-08-12 15:58:00-04:00,143.42999267578125,143.4499969482422,143.39999389648438,143.39999389648438,4586,0.0,0.0
2024-08-12 15:59:00-04:00,143.38999938964844,143.44000244140625,143.27499389648438,143.3300018310547,9416,0.0,0.0
2024-08-13 09:30:00-04:00,143.50999450683594,143.50999450683594,143.50999450683594,143.50999450683594,1170,0.0,0.0
2024-08-13 09:31:00-04:00,144.27000427246094,144.27000427246094,144.27000427246094,144.27000427246094,120,0.0,0.0
2024-08-13 09:33:00-04:00,143.97999572753906,143.97999572753906,143.97999572753906,143.97999572753906,275,0.0,0.0
2024-08-13 09:45:00-04:00,144.69000244140625,144.80999755859375,144.6199951171875,144.80999755859375,1604,0.0,0.0
2024-08-13 09:47:00-04:00,144.9600067138672,144.9600067138672,144.9600067138672,144.9600067138672,391,0.0,0.0
2024-08-13 09:48:00-04:00,145.3000030517578,145.3000030517578,145.3000030517578,145.3000030517578,153,0.0,0.0
2024-08-13 09:49:00-04:00,145.0,145.0,145.0,145.0,428,0.0,0.0
2024-08-13 09:52:00-04:00,144.72999572753906,144.88499450683594,144.63999938964844,144.63999938964844,2179,0.0,0.0
2024-08-13 09:53:00-04:00,144.52000427246094,144.52000427246094,144.52000427246094,144.52000427246094,518,0.0,0.0
2024-08-13 09:55:00-04:00,144.41000366210938,144.41000366210938,144.41000366210938,144.41000366210938,120,0.0,0.0
2024-08-13 09:56:00-04:00,144.08999633789062,144.08999633789062,144.08999633789062,144.08999633789062,110,0.0,0.0
2024-08-13 09:57:00-04:00,144.49740600585938,144.49740600585938,144.49740600585938,144.49740600585938,790,0.0,0.0
2024-08-13 10:02:00-04:00,144.08999633789062,144.14999389648438,144.08999633789062,144.14999389648438,1039,0.0,0.0
2024-08-13 10:04:00-04:00,143.85000610351562,143.85000610351562,143.85000610351562,143.85000610351562,211,0.0,0.0
2024-08-13 10:06:00-04:00,143.6999969482422,143.6999969482422,143.6999969482422,143.6999969482422,286,0.0,0.0
2024-08-13 10:07:00-04:00,143.64999389648438,143.64999389648438,143.64999389648438,143.64999389648438,157,0.0,0.0
2024-08-13 10:08:00-04:00,143.74000549316406,143.74000549316406,143.74000549316406,143.74000549316406,517,0.0,0.0
2024-08-13 10:14:00-04:00,143.64999389648438,143.64999389648438,143.64999389648438,143.64999389648438,989,0.0,0.0
2024-08-13 10:20:00-04:00,143.11000061035156,143.11000061035156,143.10000610351562,143.10000610351562,455,0.0,0.0
2024-08-13 10:23:00-04:00,143.1999969482422,143.1999969482422,143.1999969482422,143.1999969482422,247,0.0,0.0
2024-08-13 10:25:00-04:00,143.1999969482422,143.1999969482422,143.1999969482422,143.1999969482422,457,0.0,0.0
2024-08-13 10:27:00-04:00,143.2050018310547,143.2050018310547,143.2050018310547,143.2050018310547,337,0.0,0.0
2024-08-13 10:30:00-04:00,143.2050018310547,143.40499877929688,143.2050018310547,143.40499877929688,318,0.0,0.0
2024-08-13 10:32:00-04:00,143.24000549316406,143.24000549316406,143.24000549316406,143.24000549316406,293,0.0,0.0
2024-08-13 10:34:00-04:00,143.42999267578125,143.42999267578125,143.42999267578125,143.42999267578125,433,0.0,0.0
2024-08-13 10:37:00-04:00,143.42999267578125,143.42999267578125,143.42999267578125,143.42999267578125,566,0.0,0.0
2024-08-13 10:39:00-04:00,143.39500427246094,143.39500427246094,143.39500427246094,143.39500427246094,201,0.0,0.0
2024-08-13 10:41:00-04:00,143.42999267578125,143.42999267578125,143.42999267578125,143.42999267578125,515,0.0,0.0
2024-08-13 10:44:00-04:00,143.69000244140625,143.69000244140625,143.69000244140625,143.69000244140625,161,0.0,0.0
2024-08-13 10:45:00-04:00,143.64999389648438,143.64999389648438,143.6300048828125,143.6300048828125,1101,0.0,0.0
2024-08-13 10:51:00-04:00,143.74000549316406,143.74000549316406,143.74000549316406,143.74000549316406,463,0.0,0.0
2024-08-13 10:57:00-04:00,143.57000732421875,143.57000732421875,143.57000732421875,143.57000732421875,190,0.0,0.0
2024-08-13 10:58:00-04:00,143.72999572753906,143.72999572753906,143.72999572753906,143.72999572753906,111,0.0,0.0
2024-08-13 10:59:00-04:00,143.74000549316406,143.8800048828125,143.74000549316406,143.82000732421875,1100,0.0,0.0
2024-08-13 11:05:00-04:00,143.6999969482422,143.86500549316406,143.6999969482422,143.86500549316406,281,0.0,0.0
2024-08-13 11:07:00-04:00,143.75999450683594,143.75999450683594,143.75999450683594,143.75999450683594,336,0.0,0.0
2024-08-13 11:14:00-04:00,143.58999633789062,143.58999633789062,143.58999633789062,143.58999633789062,1391,0.0,0.0
2024-08-13 11:32:00-04:00,143.6699981689453,143.6699981689453,143.6699981689453,143.6699981689453,927,0.0,0.0
2024-08-13 11:35:00-04:00,143.6999969482422,143.6999969482422,143.6999969482422,143.6999969482422,288,0.0,0.0
2024-08-13 11:40:00-04:00,143.75999450683594,143.84500122070312,143.75999450683594,143.84500122070312,810,0.0,0.0
2024-08-13 11:46:00-04:00,143.89999389648438,143.9199981689453,143.89999389648438,143.9199981689453,428,0.0,0.0
2024-08-13 11:47:00-04:00,143.9499969482422,143.9499969482422,143.9499969482422,143.9499969482422,471,0.0,0.0
2024-08-13 11:51:00-04:00,143.9600067138672,143.9600067138672,143.9600067138672,143.9600067138672,600,0.0,0.0
2024-08-13 11:59:00-04:00,143.97000122070312,144.05999755859375,143.97000122070312,144.05999755859375,771,0.0,0.0
2024-08-13 12:01:00-04:00,144.02999877929688,144.02999877929688,144.02999877929688,144.02999877929688,239,0.0,0.0
2024-08-13 12:05:00-04:00,144.0399932861328,144.0399932861328,144.0399932861328,144.0399932861328,362,0.0,0.0
2024-08-13 12:07:00-04:00,144.11000061035156,144.21499633789062,144.11000061035156,144.21499633789062,760,0.0,0.0
2024-08-13 12:08:00-04:00,144.22999572753906,144.22999572753906,144.22999572753906,144.22999572753906,213,0.0,0.0
2024-08-13 12:10:00-04:00,144.23049926757812,144.2949981689453,144.23049926757812,144.2949981689453,922,0.0,0.0
2024-08-13 12:17:00-04:00,144.39999389648438,144.39999389648438,144.25,144.25,1682,0.0,0.0
2024-08-13 12:23:00-04:00,144.3300018310547,144.3300018310547,144.2100067138672,144.2100067138672,2140,0.0,0.0
2024-08-13 12:36:00-04:00,144.18800354003906,144.18800354003906,144.18800354003906,144.18800354003906,251,0.0,0.0
2024-08-13 12:37:00-04:00,144.22000122070312,144.22000122070312,144.22000122070312,144.22000122070312,119,0.0,0.0
2024-08-13 12:39:00-04:00,144.22000122070312,144.22000122070312,144.22000122070312,144.22000122070312,309,0.0,0.0
2024-08-13 12:42:00-04:00,144.21499633789062,144.21499633789062,144.21499633789062,144.21499633789062,544,0.0,0.0
2024-08-13 12:46:00-04:00,144.3000030517578,144.36000061035156,144.3000030517578,144.32000732421875,1025,0.0,0.0
2024-08-13 12:50:00-04:00,144.44000244140625,144.44000244140625,144.44000244140625,144.44000244140625,1114,0.0,0.0
2024-08-13 12:57:00-04:00,144.44000244140625,144.44000244140625,144.44000244140625,144.44000244140625,147,0.0,0.0
2024-08-13 12:58:00-04:00,144.57000732421875,144.57000732421875,144.57000732421875,144.57000732421875,638,0.0,0.0
2024-08-13 12:59:00-04:00,144.44000244140625,144.44000244140625,144.3800048828125,144.3800048828125,884,0.0,0.0
2024-08-13 13:02:00-04:00,144.41000366210938,144.41000366210938,144.41000366210938,144.41000366210938,530,0.0,0.0
2024-08-13 13:09:00-04:00,144.4149932861328,144.4149932861328,144.30999755859375,144.30999755859375,1081,0.0,0.0
2024-08-13 13:15:00-04:00,144.38999938964844,144.38999938964844,144.38999938964844,144.38999938964844,981,0.0,0.0
2024-08-13 13:29:00-04:00,144.52000427246094,144.52000427246094,144.5,144.5,534,0.0,0.0
2024-08-13 13:30:00-04:00,144.59230041503906,144.59230041503906,144.46710205078125,144.46710205078125,3527,0.0,0.0
2024-08-13 13:35:00-04:00,144.5399932861328,144.5399932861328,144.52999877929688,144.52999877929688,1290,0.0,0.0
2024-08-13 13:38:00-04:00,144.47999572753906,144.47999572753906,144.47999572753906,144.47999572753906,116,0.0,0.0
2024-08-13 13:40:00-04:00,144.50999450683594,144.50999450683594,144.50999450683594,144.50999450683594,237,0.0,0.0
2024-08-13 13:42:00-04:00,144.6300048828125,144.6300048828125,144.6300048828125,144.6300048828125,158,0.0,0.0
2024-08-13 13:43:00-04:00,144.52000427246094,144.67999267578125,144.52000427246094,144.67999267578125,2978,0.0,0.0
2024-08-13 13:44:00-04:00,144.77499389648438,144.77499389648438,144.77499389648438,144.77499389648438,156,0.0,0.0
2024-08-13 13:45:00-04:00,144.8699951171875,144.8699951171875,144.8699951171875,144.8699951171875,111,0.0,0.0
2024-08-13 13:46:00-04:00,144.8699951171875,144.8699951171875,144.49000549316406,144.49000549316406,1922,0.0,0.0
2024-08-13 13:49:00-04:00,144.52000427246094,144.52000427246094,144.52000427246094,144.52000427246094,145,0.0,0.0
2024-08-13 13:51:00-04:00,144.60499572753906,144.60499572753906,144.60499572753906,144.60499572753906,150,0.0,0.0
2024-08-13 13:55:00-04:00,144.60000610351562,144.60000610351562,144.60000610351562,144.60000610351562,238,0.0,0.0
2024-08-13 13:58:00-04:00,144.57000732421875,144.57000732421875,144.57000732421875,144.57000732421875,101,0.0,0.0
2024-08-13 13:59:00-04:00,144.74000549316406,144.74000549316406,144.64500427246094,144.64500427246094,320,0.0,0.0
2024-08-13 14:00:00-04:00,144.5500030517578,144.5500030517578,144.5500030517578,144.5500030517578,243,0.0,0.0
2024-08-13 14:01:00-04:00,144.6300048828125,144.77499389648438,144.6300048828125,144.77499389648438,1813,0.0,0.0
2024-08-13 14:03:00-04:00,144.88999938964844,144.88999938964844,144.88999938964844,144.88999938964844,100,0.0,0.0
2024-08-13 14:04:00-04:00,144.88999938964844,144.88999938964844,144.88999938964844,144.88999938964844,101,0.0,0.0
2024-08-13 14:05:00-04:00,144.89999389648438,144.89999389648438,144.89999389648438,144.89999389648438,403,0.0,0.0
2024-08-13 14:07:00-04:00,144.86900329589844,144.88999938964844,144.86900329589844,144.88999938964844,529,0.0,0.0
2024-08-13 14:10:00-04:00,144.9199981689453,144.9199981689453,144.9199981689453,144.9199981689453,186,0.0,0.0
2024-08-13 14:11:00-04:00,144.6999969482422,144.6999969482422,144.64999389648438,144.64999389648438,1975,0.0,0.0
2024-08-13 14:15:00-04:00,144.63999938964844,144.63999938964844,144.63999938964844,144.63999938964844,262,0.0,0.0
2024-08-13 14:16:00-04:00,144.77000427246094,144.7899932861328,144.7050018310547,144.7899932861328,1592,0.0,0.0
2024-08-13 14:17:00-04:00,144.7050018310547,144.7050018310547,144.7050018310547,144.7050018310547,213,0.0,0.0
2024-08-13 14:18:00-04:00,144.67999267578125,144.67999267578125,144.6199951171875,144.6199951171875,1237,0.0,0.0
2024-08-13 14:19:00-04:00,144.53250122070312,144.53250122070312,144.53250122070312,144.53250122070312,746,0.0,0.0
2024-08-13 14:28:00-04:00,144.60000610351562,144.60000610351562,144.60000610351562,144.60000610351562,351,0.0,0.0
2024-08-13 14:30:00-04:00,144.61000061035156,144.61000061035156,144.52000427246094,144.52000427246094,1951,0.0,0.0
2024-08-13 14:35:00-04:00,144.58999633789062,144.58999633789062,144.5399932861328,144.5399932861328,888,0.0,0.0
2024-08-13 14:36:00-04:00,144.66000366210938,144.66000366210938,144.61000061035156,144.61000061035156,253,0.0,0.0
2024-08-13 14:37:00-04:00,144.66000366210938,144.66000366210938,144.66000366210938,144.66000366210938,775,0.0,0.0
2024-08-13 14:39:00-04:00,144.6699981689453,144.6699981689453,144.6699981689453,144.6699981689453,104,0.0,0.0
2024-08-13 14:40:00-04:00,144.75999450683594,144.75999450683594,144.75999450683594,144.75999450683594,113,0.0,0.0
2024-08-13 14:41:00-04:00,144.74000549316406,144.74000549316406,144.74000549316406,144.74000549316406,111,0.0,0.0
2024-08-13 14:42:00-04:00,144.74000549316406,144.74000549316406,144.6649932861328,144.6649932861328,521,0.0,0.0
2024-08-13 14:43:00-04:00,144.66000366210938,144.66000366210938,144.66000366210938,144.66000366210938,678,0.0,0.0
2024-08-13 14:47:00-04:00,144.75999450683594,144.75999450683594,144.75999450683594,144.75999450683594,312,0.0,0.0
2024-08-13 14:49:00-04:00,144.75999450683594,144.75999450683594,144.6999969482422,144.75999450683594,743,0.0,0.0
2024-08-13 14:50:00-04:00,144.75999450683594,144.75999450683594,144.75999450683594,144.75999450683594,137,0.0,0.0
2024-08-13 14:51:00-04:00,144.72000122070312,144.72999572753906,144.64999389648438,144.64999389648438,2372,0.0,0.0
2024-08-13 14:53:00-04:00,144.5800018310547,144.5800018310547,144.5800018310547,144.5800018310547,229,0.0,0.0
2024-08-13 14:54:00-04:00,144.5800018310547,144.5800018310547,144.5800018310547,144.5800018310547,596,0.0,0.0
2024-08-13 14:55:00-04:00,144.42999267578125,144.42999267578125,144.42999267578125,144.42999267578125,311,0.0,0.0
2024-08-13 14:57:00-04:00,144.41000366210938,144.41000366210938,144.3800048828125,144.3800048828125,328,0.0,0.0
2024-08-13 14:59:00-04:00,144.50999450683594,144.50999450683594,144.4149932861328,144.4149932861328,3837,0.0,0.0
2024-08-13 15:02:00-04:00,144.30999755859375,144.30999755859375,144.30999755859375,144.30999755859375,189,0.0,0.0
2024-08-13 15:03:00-04:00,144.4600067138672,144.4600067138672,144.39500427246094,144.39500427246094,935,0.0,0.0
2024-08-13 15:04:00-04:00,144.41000366210938,144.41000366210938,144.3000030517578,144.3000030517578,502,0.0,0.0
2024-08-13 15:05:00-04:00,144.41000366210938,144.4199981689453,144.38999938964844,144.4199981689453,623,0.0,0.0
2024-08-13 15:06:00-04:00,144.27999877929688,144.42999267578125,144.27999877929688,144.42999267578125,1510,0.0,0.0
2024-08-13 15:08:00-04:00,144.47000122070312,144.47999572753906,144.47000122070312,144.47999572753906,274,0.0,0.0
2024-08-13 15:10:00-04:00,144.42999267578125,144.42999267578125,144.4199981689453,144.4199981689453,335,0.0,0.0
2024-08-13 15:12:00-04:00,144.3000030517578,144.3000030517578,144.3000030517578,144.3000030517578,228,0.0,0.0
2024-08-13 15:13:00-04:00,144.3000030517578,144.3000030517578,144.3000030517578,144.3000030517578,399,0.0,0.0
2024-08-13 15:16:00-04:00,144.3000030517578,144.3000030517578,144.25,144.25,658,0.0,0.0
2024-08-13 15:19:00-04:00,144.1699981689453,144.1699981689453,144.1699981689453,144.1699981689453,201,0.0,0.0
2024-08-13 15:20:00-04:00,144.22500610351562,144.22500610351562,144.22500610351562,144.22500610351562,462,0.0,0.0
2024-08-13 15:22:00-04:00,144.19000244140625,144.19000244140625,144.17999267578125,144.17999267578125,224,0.0,0.0
2024-08-13 15:23:00-04:00,144.3000030517578,144.4199981689453,144.2449951171875,144.4199981689453,1794,0.0,0.0
2024-08-13 15:25:00-04:00,144.47999572753906,144.52999877929688,144.47999572753906,144.52999877929688,520,0.0,0.0
2024-08-13 15:27:00-04:00,144.4499969482422,144.4499969482422,144.4499969482422,144.4499969482422,381,0.0,0.0
2024-08-13 15:28:00-04:00,144.4600067138672,144.4600067138672,144.4600067138672,144.4600067138672,213,0.0,0.0
2024-08-13 15:29:00-04:00,144.4600067138672,144.47000122070312,144.4499969482422,144.4499969482422,1643,0.0,0.0
2024-08-13 15:30:00-04:00,144.38999938964844,144.38999938964844,144.38999938964844,144.38999938964844,123,0.0,0.0
2024-08-13 15:31:00-04:00,144.47000122070312,144.4949951171875,144.40750122070312,144.4949951171875,1143,0.0,0.0
2024-08-13 15:33:00-04:00,144.52999877929688,144.52999877929688,144.46499633789062,144.52499389648438,762,0.0,0.0
2024-08-13 15:34:00-04:00,144.47000122070312,144.47000122070312,144.47000122070312,144.47000122070312,200,0.0,0.0
2024-08-13 15:35:00-04:00,144.539306640625,144.539306640625,144.539306640625,144.539306640625,693,0.0,0.0
2024-08-13 15:37:00-04:00,144.5,144.5,144.47000122070312,144.49000549316406,3759,0.0,0.0
2024-08-13 15:38:00-04:00,144.4949951171875,144.50999450683594,144.4949951171875,144.50169372558594,465,0.0,0.0
2024-08-13 15:39:00-04:00,144.4949951171875,144.52999877929688,144.4949951171875,144.52999877929688,1686,0.0,0.0
2024-08-13 15:40:00-04:00,144.6999969482422,144.6999969482422,144.6999969482422,144.6999969482422,517,0.0,0.0
2024-08-13 15:41:00-04:00,144.6699981689453,144.6699981689453,144.58999633789062,144.61000061035156,2124,0.0,0.0
2024-08-13 15:42:00-04:00,144.6649932861328,144.6649932861328,144.58999633789062,144.58999633789062,975,0.0,0.0
2024-08-13 15:44:00-04:00,144.57000732421875,144.57000732421875,144.5500030517578,144.5500030517578,358,0.0,0.0
2024-08-13 15:45:00-04:00,144.55999755859375,144.5800018310547,144.49000549316406,144.49000549316406,1547,0.0,0.0
2024-08-13 15:46:00-04:00,144.50999450683594,144.5449981689453,144.48500061035156,144.5449981689453,1978,0.0,0.0
2024-08-13 15:47:00-04:00,144.6199951171875,144.6199951171875,144.61500549316406,144.61500549316406,705,0.0,0.0
2024-08-13 15:48:00-04:00,144.6699981689453,144.6699981689453,144.64500427246094,144.64999389648438,833,0.0,0.0
2024-08-13 15:49:00-04:00,144.67999267578125,144.67999267578125,144.6649932861328,144.67999267578125,1116,0.0,0.0
2024-08-13 15:50:00-04:00,144.72999572753906,144.75,144.55999755859375,144.57000732421875,7144,0.0,0.0
2024-08-13 15:51:00-04:00,144.59500122070312,144.63999938964844,144.59500122070312,144.63999938964844,1177,0.0,0.0
2024-08-13 15:52:00-04:00,144.77000427246094,144.85000610351562,144.77000427246094,144.85000610351562,3377,0.0,0.0
2024-08-13 15:53:00-04:00,144.72999572753906,144.72999572753906,144.6699981689453,144.6699981689453,536,0.0,0.0
2024-08-13 15:54:00-04:00,144.58999633789062,144.58999633789062,144.5,144.5399932861328,2547,0.0,0.0
2024-08-13 15:55:00-04:00,144.57000732421875,144.5800018310547,144.5,144.52999877929688,5732,0.0,0.0
2024-08-13 15:56:00-04:00,144.4600067138672,144.49000549316406,144.4199981689453,144.4199981689453,4379,0.0,0.0
2024-08-13 15:57:00-04:00,144.41000366210938,144.49000549316406,144.41000366210938,144.4499969482422,4979,0.0,0.0
2024-08-13 15:58:00-04:00,144.42999267578125,144.5,144.4199981689453,144.49000549316406,6299,0.0,0.0
2024-08-13 15:59:00-04:00,144.47999572753906,144.49000549316406,144.33999633789062,144.33999633789062,12457,0.0,0.0
2024-08-14 09:30:00-04:00,144.1300048828125,144.1300048828125,144.1300048828125,144.1300048828125,1727,0.0,0.0
2024-08-14 09:54:00-04:00,144.14999389648438,144.14999389648438,144.13999938964844,144.13999938964844,606,0.0,0.0
2024-08-14 09:56:00-04:00,144.27999877929688,144.30999755859375,144.1999969482422,144.30999755859375,705,0.0,0.0
2024-08-14 09:59:00-04:00,144.4499969482422,144.4499969482422,144.31500244140625,144.31500244140625,961,0.0,0.0
2024-08-14 10:05:00-04:00,144.22999572753906,144.28500366210938,144.2100067138672,144.28500366210938,843,0.0,0.0
2024-08-14 10:08:00-04:00,144.18499755859375,144.18499755859375,144.18499755859375,144.18499755859375,173,0.0,0.0
2024-08-14 10:09:00-04:00,144.10000610351562,144.1649932861328,144.02499389648438,144.0399932861328,1201,0.0,0.0
2024-08-14 10:11:00-04:00,144.39999389648438,144.4499969482422,144.39999389648438,144.4499969482422,201,0.0,0.0
2024-08-14 10:12:00-04:00,144.4199981689453,144.4199981689453,144.25,144.39999389648438,779,0.0,0.0
2024-08-14 10:13:00-04:00,144.4949951171875,144.4949951171875,144.48500061035156,144.48500061035156,581,0.0,0.0
2024-08-14 10:22:00-04:00,144.5,144.5,144.5,144.5,736,0.0,0.0
2024-08-14 10:30:00-04:00,144.72500610351562,144.72500610351562,144.72500610351562,144.72500610351562,278,0.0,0.0
2024-08-14 10:31:00-04:00,144.72999572753906,144.72999572753906,144.72999572753906,144.72999572753906,824,0.0,0.0
2024-08-14 10:35:00-04:00,144.4199981689453,144.5800018310547,144.4199981689453,144.5800018310547,1515,0.0,0.0
2024-08-14 10:54:00-04:00,144.33999633789062,144.33999633789062,144.33999633789062,144.33999633789062,508,0.0,0.0
2024-08-14 10:59:00-04:00,144.42999267578125,144.60000610351562,144.42999267578125,144.57000732421875,2434,0.0,0.0
2024-08-14 11:03:00-04:00,144.6999969482422,144.6999969482422,144.6999969482422,144.6999969482422,356,0.0,0.0
2024-08-14 11:07:00-04:00,144.80999755859375,144.80999755859375,144.80999755859375,144.80999755859375,461,0.0,0.0
2024-08-14 11:12:00-04:00,144.71499633789062,144.71499633789062,144.71499633789062,144.71499633789062,203,0.0,0.0
2024-08-14 11:13:00-04:00,144.6750030517578,144.6750030517578,144.6750030517578,144.6750030517578,230,0.0,0.0
2024-08-14 11:14:00-04:00,144.7100067138672,144.7100067138672,144.7100067138672,144.7100067138672,714,0.0,0.0
2024-08-14 11:19:00-04:00,144.38999938964844,144.38999938964844,144.38999938964844,144.38999938964844,276,0.0,0.0
2024-08-14 11:23:00-04:00,144.38999938964844,144.38999938964844,144.38999938964844,144.38999938964844,1040,0.0,0.0
2024-08-14 11:30:00-04:00,144.36000061035156,144.5050048828125,144.36000061035156,144.5050048828125,1914,0.0,0.0
2024-08-14 11:31:00-04:00,144.52999877929688,144.52999877929688,144.52999877929688,144.52999877929688,396,0.0,0.0
2024-08-14 11:34:00-04:00,144.51499938964844,144.51499938964844,144.51499938964844,144.51499938964844,312,0.0,0.0
2024-08-14 11:38:00-04:00,144.50999450683594,144.50999450683594,144.3699951171875,144.3699951171875,1147,0.0,0.0
2024-08-14 11:51:00-04:00,144.16000366210938,144.16000366210938,144.16000366210938,144.16000366210938,215,0.0,0.0
2024-08-14 11:52:00-04:00,144.27499389648438,144.27499389648438,144.27499389648438,144.27499389648438,1290,0.0,0.0
2024-08-14 12:13:00-04:00,144.3800048828125,144.47000122070312,144.3800048828125,144.4499969482422,2102,0.0,0.0
2024-08-14 12:18:00-04:00,144.13999938964844,144.13999938964844,144.13999938964844,144.13999938964844,155,0.0,0.0
2024-08-14 12:19:00-04:00,144.1199951171875,144.1199951171875,144.1199951171875,144.1199951171875,562,0.0,0.0
2024-08-14 12:23:00-04:00,143.97000122070312,143.97000122070312,143.86000061035156,143.86000061035156,623,0.0,0.0
2024-08-14 12:27:00-04:00,143.6999969482422,143.6999969482422,143.6999969482422,143.6999969482422,275,0.0,0.0
2024-08-14 12:28:00-04:00,143.75999450683594,143.75999450683594,143.75999450683594,143.75999450683594,587,0.0,0.0
2024-08-14 12:31:00-04:00,143.91000366210938,143.94000244140625,143.89500427246094,143.89500427246094,924,0.0,0.0
2024-08-14 12:35:00-04:00,143.82000732421875,143.8699951171875,143.82000732421875,143.8699951171875,233,0.0,0.0
2024-08-14 12:37:00-04:00,143.85000610351562,143.85000610351562,143.85000610351562,143.85000610351562,116,0.0,0.0
2024-08-14 12:39:00-04:00,143.99000549316406,144.0050048828125,143.99000549316406,144.0050048828125,1086,0.0,0.0
2024-08-14 12:42:00-04:00,143.92999267578125,143.92999267578125,143.8300018310547,143.8300018310547,409,0.0,0.0
2024-08-14 12:44:00-04:00,143.75999450683594,143.75999450683594,143.75999450683594,143.75999450683594,570,0.0,0.0
2024-08-14 12:52:00-04:00,143.57009887695312,143.60000610351562,143.57009887695312,143.60000610351562,363,0.0,0.0
2024-08-14 12:54:00-04:00,143.85000610351562,143.8800048828125,143.85000610351562,143.8800048828125,1158,0.0,0.0
2024-08-14 12:58:00-04:00,143.88999938964844,143.88999938964844,143.88999938964844,143.88999938964844,265,0.0,0.0
2024-08-14 13:00:00-04:00,143.89999389648438,143.89999389648438,143.88999938964844,143.88999938964844,374,0.0,0.0
2024-08-14 13:01:00-04:00,143.77000427246094,143.77000427246094,143.75999450683594,143.75999450683594,353,0.0,0.0
2024-08-14 13:06:00-04:00,143.69000244140625,143.69000244140625,143.69000244140625,143.69000244140625,207,0.0,0.0
2024-08-14 13:09:00-04:00,143.80999755859375,143.80999755859375,143.80999755859375,143.80999755859375,140,0.0,0.0
2024-08-14 13:10:00-04:00,143.7100067138672,143.81500244140625,143.7100067138672,143.81500244140625,331,0.0,0.0
2024-08-14 13:11:00-04:00,143.72000122070312,143.72000122070312,143.72000122070312,143.72000122070312,986,0.0,0.0
2024-08-14 13:18:00-04:00,143.9199981689453,143.9199981689453,143.9199981689453,143.9199981689453,517,0.0,0.0
2024-08-14 13:28:00-04:00,143.8300018310547,143.8300018310547,143.8300018310547,143.8300018310547,603,0.0,0.0
2024-08-14 13:31:00-04:00,143.78610229492188,143.78610229492188,143.78610229492188,143.78610229492188,133,0.0,0.0
2024-08-14 13:32:00-04:00,143.8000030517578,143.8000030517578,143.8000030517578,143.8000030517578,667,0.0,0.0
2024-08-14 13:38:00-04:00,143.91000366210938,143.91000366210938,143.91000366210938,143.91000366210938,253,0.0,0.0
2024-08-14 13:39:00-04:00,143.85000610351562,143.94000244140625,143.85000610351562,143.94000244140625,703,0.0,0.0
2024-08-14 13:40:00-04:00,143.7899932861328,143.7899932861328,143.7899932861328,143.7899932861328,107,0.0,0.0
2024-08-14 13:41:00-04:00,143.7899932861328,143.7899932861328,143.7899932861328,143.7899932861328,180,0.0,0.0
2024-08-14 13:42:00-04:00,143.7949981689453,143.7949981689453,143.7949981689453,143.7949981689453,453,0.0,0.0
2024-08-14 13:43:00-04:00,143.75999450683594,143.75999450683594,143.75999450683594,143.75999450683594,213,0.0,0.0
2024-08-14 13:46:00-04:00,143.8179931640625,143.8179931640625,143.8179931640625,143.8179931640625,383,0.0,0.0
2024-08-14 13:47:00-04:00,143.75999450683594,143.75999450683594,143.75999450683594,143.75999450683594,611,0.0,0.0
2024-08-14 13:54:00-04:00,143.9199981689453,143.9199981689453,143.9199981689453,143.9199981689453,366,0.0,0.0
2024-08-14 13:55:00-04:00,143.94000244140625,143.94000244140625,143.94000244140625,143.94000244140625,160,0.0,0.0
2024-08-14 13:56:00-04:00,143.97000122070312,143.97000122070312,143.97000122070312,143.97000122070312,424,0.0,0.0
2024-08-14 14:00:00-04:00,143.9199981689453,143.9199981689453,143.89999389648438,143.89999389648438,322,0.0,0.0
2024-08-14 14:06:00-04:00,143.97000122070312,143.97000122070312,143.97000122070312,143.97000122070312,206,0.0,0.0
2024-08-14 14:08:00-04:00,143.97000122070312,143.97000122070312,143.97000122070312,143.97000122070312,159,0.0,0.0
2024-08-14 14:09:00-04:00,143.99000549316406,143.99000549316406,143.99000549316406,143.99000549316406,244,0.0,0.0
2024-08-14 14:10:00-04:00,143.98500061035156,143.98500061035156,143.98500061035156,143.98500061035156,205,0.0,0.0
2024-08-14 14:12:00-04:00,143.99000549316406,144.0,143.99000549316406,144.0,1421,0.0,0.0
2024-08-14 14:14:00-04:00,143.89500427246094,143.89500427246094,143.89500427246094,143.89500427246094,103,0.0,0.0
2024-08-14 14:15:00-04:00,143.89500427246094,143.89500427246094,143.89500427246094,143.89500427246094,105,0.0,0.0
2024-08-14 14:16:00-04:00,143.89500427246094,143.89500427246094,143.89500427246094,143.89500427246094,109,0.0,0.0
2024-08-14 14:17:00-04:00,143.89500427246094,143.89500427246094,143.89500427246094,143.89500427246094,486,0.0,0.0
2024-08-14 14:24:00-04:00,143.67999267578125,143.67999267578125,143.67999267578125,143.67999267578125,304,0.0,0.0
2024-08-14 14:26:00-04:00,143.69000244140625,143.75680541992188,143.6699981689453,143.75680541992188,581,0.0,0.0
2024-08-14 14:27:00-04:00,143.64309692382812,143.64309692382812,143.64309692382812,143.64309692382812,482,0.0,0.0
2024-08-14 14:29:00-04:00,143.73500061035156,143.73500061035156,143.73500061035156,143.73500061035156,594,0.0,0.0
2024-08-14 14:33:00-04:00,143.75,143.77000427246094,143.75,143.77000427246094,1382,0.0,0.0
2024-08-14 14:41:00-04:00,143.91000366210938,143.9199981689453,143.8699951171875,143.8699951171875,944,0.0,0.0
2024-08-14 14:46:00-04:00,143.8000030517578,143.8000030517578,143.8000030517578,143.8000030517578,400,0.0,0.0
2024-08-14 14:49:00-04:00,143.9199981689453,143.9199981689453,143.9199981689453,143.9199981689453,337,0.0,0.0
2024-08-14 14:52:00-04:00,143.9199981689453,143.9199981689453,143.9199981689453,143.9199981689453,580,0.0,0.0
2024-08-14 14:53:00-04:00,143.91769409179688,143.91769409179688,143.91000366210938,143.91000366210938,220,0.0,0.0
2024-08-14 14:54:00-04:00,143.86000061035156,143.88999938964844,143.86000061035156,143.88999938964844,984,0.0,0.0
2024-08-14 14:55:00-04:00,143.9600067138672,143.9600067138672,143.9600067138672,143.9600067138672,463,0.0,0.0
2024-08-14 14:57:00-04:00,143.9600067138672,143.9600067138672,143.9600067138672,143.9600067138672,225,0.0,0.0
2024-08-14 15:00:00-04:00,143.92999267578125,143.92999267578125,143.92999267578125,143.92999267578125,750,0.0,0.0
2024-08-14 15:02:00-04:00,143.82000732421875,143.82000732421875,143.82000732421875,143.82000732421875,163,0.0,0.0
2024-08-14 15:06:00-04:00,143.9250030517578,143.9250030517578,143.9250030517578,143.9250030517578,303,0.0,0.0
2024-08-14 15:08:00-04:00,143.99000549316406,143.99000549316406,143.99000549316406,143.99000549316406,194,0.0,0.0
2024-08-14 15:10:00-04:00,143.99000549316406,144.01499938964844,143.99000549316406,144.01499938964844,729,0.0,0.0
2024-08-14 15:11:00-04:00,144.0,144.02000427246094,143.98500061035156,143.98500061035156,357,0.0,0.0
2024-08-14 15:12:00-04:00,143.98739624023438,144.0,143.98739624023438,144.0,425,0.0,0.0
2024-08-14 15:13:00-04:00,144.01499938964844,144.01499938964844,143.97999572753906,143.97999572753906,500,0.0,0.0
2024-08-14 15:14:00-04:00,143.92999267578125,143.9600067138672,143.85000610351562,143.85000610351562,723,0.0,0.0
2024-08-14 15:15:00-04:00,143.85000610351562,143.85000610351562,143.85000610351562,143.85000610351562,593,0.0,0.0
2024-08-14 15:22:00-04:00,143.60000610351562,143.60000610351562,143.60000610351562,143.60000610351562,520,0.0,0.0
2024-08-14 15:25:00-04:00,143.58999633789062,143.58999633789062,143.58999633789062,143.58999633789062,220,0.0,0.0
2024-08-14 15:26:00-04:00,143.6999969482422,143.8000030517578,143.6999969482422,143.8000030517578,1374,0.0,0.0
2024-08-14 15:28:00-04:00,143.69000244140625,143.69000244140625,143.69000244140625,143.69000244140625,144,0.0,0.0
2024-08-14 15:29:00-04:00,143.69000244140625,143.7100067138672,143.68499755859375,143.68499755859375,1151,0.0,0.0
2024-08-14 15:31:00-04:00,143.68499755859375,143.68499755859375,143.68499755859375,143.68499755859375,506,0.0,0.0
2024-08-14 15:32:00-04:00,143.68499755859375,143.68499755859375,143.6199951171875,143.6199951171875,999,0.0,0.0
2024-08-14 15:35:00-04:00,143.49000549316406,143.49000549316406,143.49000549316406,143.49000549316406,1072,0.0,0.0
2024-08-14 15:39:00-04:00,143.52999877929688,143.5399932861328,143.52999877929688,143.5399932861328,1243,0.0,0.0
2024-08-14 15:41:00-04:00,143.6199951171875,143.6199951171875,143.6199951171875,143.6199951171875,224,0.0,0.0
2024-08-14 15:42:00-04:00,143.6300048828125,143.6300048828125,143.6300048828125,143.6300048828125,443,0.0,0.0
2024-08-14 15:43:00-04:00,143.5500030517578,143.5850067138672,143.5500030517578,143.5850067138672,579,0.0,0.0
2024-08-14 15:44:00-04:00,143.55799865722656,143.5800018310547,143.5500030517578,143.5800018310547,974,0.0,0.0
2024-08-14 15:45:00-04:00,143.49000549316406,143.49000549316406,143.49000549316406,143.49000549316406,245,0.0,0.0
2024-08-14 15:47:00-04:00,143.51499938964844,143.57000732421875,143.5124969482422,143.57000732421875,1330,0.0,0.0
2024-08-14 15:48:00-04:00,143.5189971923828,143.5189971923828,143.5189971923828,143.5189971923828,197,0.0,0.0
2024-08-14 15:49:00-04:00,143.60000610351562,143.60000610351562,143.60000610351562,143.60000610351562,395,0.0,0.0
2024-08-14 15:50:00-04:00,143.67999267578125,143.72999572753906,143.63999938964844,143.66000366210938,2136,0.0,0.0
2024-08-14 15:51:00-04:00,143.56199645996094,143.63999938964844,143.56199645996094,143.63999938964844,1502,0.0,0.0
2024-08-14 15:53:00-04:00,143.58999633789062,143.66000366210938,143.58999633789062,143.66000366210938,1697,0.0,0.0
2024-08-14 15:54:00-04:00,143.60699462890625,143.6699981689453,143.60699462890625,143.6699981689453,1027,0.0,0.0
2024-08-14 15:55:00-04:00,143.7100067138672,143.77000427246094,143.64999389648438,143.64999389648438,2720,0.0,0.0
2024-08-14 15:56:00-04:00,143.69000244140625,143.77000427246094,143.69000244140625,143.75,2283,0.0,0.0
2024-08-14 15:57:00-04:00,143.71499633789062,143.75999450683594,143.71499633789062,143.75999450683594,989,0.0,0.0
2024-08-14 15:58:00-04:00,143.8000030517578,143.8000030517578,143.8000030517578,143.8000030517578,490,0.0,0.0
2024-08-14 15:59:00-04:00,143.82000732421875,143.90499877929688,143.80999755859375,143.88999938964844,6731,0.0,0.0
2024-08-15 09:30:00-04:00,145.0,145.0,145.0,145.0,2168,0.0,0.0
2024-08-15 09:37:00-04:00,145.74000549316406,145.74000549316406,145.74000549316406,145.74000549316406,289,0.0,0.0
2024-08-15 09:41:00-04:00,145.94500732421875,146.2100067138672,145.6199951171875,145.94000244140625,3427,0.0,0.0
2024-08-15 09:42:00-04:00,146.24000549316406,146.24000549316406,146.24000549316406,146.24000549316406,239,0.0,0.0
2024-08-15 09:43:00-04:00,146.0,146.0,146.0,146.0,104,0.0,0.0
2024-08-15 09:44:00-04:00,146.0500030517578,146.0500030517578,145.9199981689453,146.0,1105,0.0,0.0
2024-08-15 09:45:00-04:00,146.0,146.05999755859375,145.91000366210938,146.05999755859375,1566,0.0,0.0
2024-08-15 09:46:00-04:00,146.1649932861328,146.1649932861328,145.91000366210938,145.91000366210938,1060,0.0,0.0
2024-08-15 09:47:00-04:00,145.89999389648438,146.14999389648438,145.89999389648438,146.14999389648438,2334,0.0,0.0
2024-08-15 09:49:00-04:00,145.99000549316406,146.05999755859375,145.82000732421875,146.0500030517578,1749,0.0,0.0
2024-08-15 09:52:00-04:00,146.1300048828125,146.1300048828125,146.0,146.0,538,0.0,0.0
2024-08-15 09:54:00-04:00,146.1999969482422,146.1999969482422,146.13999938964844,146.13999938964844,428,0.0,0.0
2024-08-15 09:57:00-04:00,146.0,146.0,145.9949951171875,146.0,1257,0.0,0.0
2024-08-15 09:58:00-04:00,146.0,146.0,146.0,146.0,101,0.0,0.0
2024-08-15 09:59:00-04:00,146.0,146.19000244140625,145.83999633789062,146.17999267578125,7286,0.0,0.0
2024-08-15 10:00:00-04:00,146.16000366210938,146.16000366210938,145.98500061035156,145.98500061035156,848,0.0,0.0
2024-08-15 10:01:00-04:00,146.0399932861328,146.0399932861328,146.0399932861328,146.0399932861328,807,0.0,0.0
2024-08-15 10:02:00-04:00,146.2050018310547,146.2100067138672,146.2050018310547,146.2100067138672,409,0.0,0.0
2024-08-15 10:03:00-04:00,146.02000427246094,146.02000427246094,146.0,146.0,469,0.0,0.0
2024-08-15 10:04:00-04:00,146.0800018310547,146.0800018310547,146.0800018310547,146.0800018310547,256,0.0,0.0
2024-08-15 10:05:00-04:00,146.00999450683594,146.0500030517578,145.91000366210938,146.0,1838,0.0,0.0
2024-08-15 10:06:00-04:00,146.0,146.00999450683594,145.89999389648438,146.00999450683594,3436,0.0,0.0
2024-08-15 10:07:00-04:00,145.92999267578125,146.0800018310547,145.92999267578125,146.0,2706,0.0,0.0
2024-08-15 10:08:00-04:00,146.0,146.0749969482422,145.92999267578125,146.00999450683594,4245,0.0,0.0
2024-08-15 10:10:00-04:00,146.0,146.0,145.9499969482422,145.9951934814453,2040,0.0,0.0
2024-08-15 10:11:00-04:00,145.9499969482422,146.02999877929688,145.92999267578125,145.92999267578125,1424,0.0,0.0
2024-08-15 10:12:00-04:00,145.89999389648438,145.99000549316406,145.4949951171875,145.4949951171875,4017,0.0,0.0
2024-08-15 10:15:00-04:00,145.77999877929688,145.93499755859375,145.77999877929688,145.93499755859375,1070,0.0,0.0
2024-08-15 10:18:00-04:00,145.8300018310547,145.9499969482422,145.8300018310547,145.9499969482422,679,0.0,0.0
2024-08-15 10:19:00-04:00,146.10000610351562,146.10000610351562,146.10000610351562,146.10000610351562,898,0.0,0.0
2024-08-15 10:22:00-04:00,146.16000366210938,146.22000122070312,146.16000366210938,146.22000122070312,1022,0.0,0.0
2024-08-15 10:31:00-04:00,146.03590393066406,146.3000030517578,146.03590393066406,146.3000030517578,2204,0.0,0.0
2024-08-15 10:32:00-04:00,146.42550659179688,146.4499969482422,146.42550659179688,146.4499969482422,480,0.0,0.0
2024-08-15 10:34:00-04:00,146.44000244140625,146.44000244140625,146.44000244140625,146.44000244140625,245,0.0,0.0
2024-08-15 10:35:00-04:00,146.11000061035156,146.19500732421875,146.11000061035156,146.18499755859375,557,0.0,0.0
2024-08-15 10:37:00-04:00,146.36849975585938,146.36849975585938,146.36849975585938,146.36849975585938,744,0.0,0.0
2024-08-15 10:38:00-04:00,146.02999877929688,146.3000030517578,146.0,146.3000030517578,1403,0.0,0.0
2024-08-15 10:39:00-04:00,145.97999572753906,146.1300048828125,145.97999572753906,146.1300048828125,349,0.0,0.0
2024-08-15 10:41:00-04:00,146.1300048828125,146.1300048828125,146.1300048828125,146.1300048828125,129,0.0,0.0
2024-08-15 10:42:00-04:00,145.97509765625,145.97509765625,145.97509765625,145.97509765625,355,0.0,0.0
2024-08-15 10:45:00-04:00,146.1405029296875,146.1405029296875,146.1405029296875,146.1405029296875,124,0.0,0.0
2024-08-15 10:46:00-04:00,146.0500030517578,146.0500030517578,145.97000122070312,145.97000122070312,208,0.0,0.0
2024-08-15 10:47:00-04:00,145.97999572753906,145.97999572753906,145.97999572753906,145.97999572753906,436,0.0,0.0
2024-08-15 10:53:00-04:00,146.0749969482422,146.14999389648438,146.0749969482422,146.14999389648438,1472,0.0,0.0
2024-08-15 10:54:00-04:00,146.23500061035156,146.23500061035156,146.23500061035156,146.23500061035156,302,0.0,0.0
2024-08-15 10:55:00-04:00,146.3000030517578,146.3000030517578,146.3000030517578,146.3000030517578,142,0.0,0.0
2024-08-15 10:56:00-04:00,146.375,146.375,146.375,146.375,166,0.0,0.0
2024-08-15 10:57:00-04:00,146.38999938964844,146.38999938964844,146.38999938964844,146.38999938964844,308,0.0,0.0
2024-08-15 11:03:00-04:00,146.44000244140625,146.49000549316406,146.44000244140625,146.49000549316406,828,0.0,0.0
2024-08-15 11:04:00-04:00,146.34500122070312,146.4665069580078,146.34500122070312,146.4665069580078,976,0.0,0.0
2024-08-15 11:09:00-04:00,146.49000549316406,146.59500122070312,146.49000549316406,146.59500122070312,989,0.0,0.0
2024-08-15 11:11:00-04:00,146.42999267578125,146.42999267578125,146.2899932861328,146.30499267578125,872,0.0,0.0
2024-08-15 11:12:00-04:00,146.27999877929688,146.27999877929688,146.27999877929688,146.27999877929688,359,0.0,0.0
2024-08-15 11:15:00-04:00,146.50999450683594,146.52000427246094,146.50999450683594,146.50999450683594,853,0.0,0.0
2024-08-15 11:19:00-04:00,146.33999633789062,146.44500732421875,146.33999633789062,146.44500732421875,409,0.0,0.0
2024-08-15 11:20:00-04:00,146.44500732421875,146.44500732421875,146.44500732421875,146.44500732421875,394,0.0,0.0
2024-08-15 11:25:00-04:00,146.5399932861328,146.55999755859375,146.52999877929688,146.52999877929688,524,0.0,0.0
2024-08-15 11:26:00-04:00,146.60000610351562,146.60000610351562,146.60000610351562,146.60000610351562,412,0.0,0.0
2024-08-15 11:28:00-04:00,146.47999572753906,146.5399932861328,146.47999572753906,146.5399932861328,655,0.0,0.0
2024-08-15 11:32:00-04:00,146.57000732421875,146.5800018310547,146.57000732421875,146.5800018310547,830,0.0,0.0
2024-08-15 11:37:00-04:00,146.6199951171875,146.6300048828125,146.61000061035156,146.6300048828125,1146,0.0,0.0
2024-08-15 11:38:00-04:00,146.64999389648438,146.64999389648438,146.49000549316406,146.49000549316406,1387,0.0,0.0
2024-08-15 11:39:00-04:00,146.50999450683594,146.50999450683594,146.5,146.5,738,0.0,0.0
2024-08-15 11:44:00-04:00,146.49000549316406,146.49000549316406,146.49000549316406,146.49000549316406,391,0.0,0.0
2024-08-15 11:50:00-04:00,146.6199951171875,146.6300048828125,146.6199951171875,146.6300048828125,616,0.0,0.0
2024-08-15 11:51:00-04:00,146.5399932861328,146.5399932861328,146.5399932861328,146.5399932861328,315,0.0,0.0
2024-08-15 11:57:00-04:00,146.5,146.5,146.47999572753906,146.47999572753906,432,0.0,0.0
2024-08-15 11:58:00-04:00,146.46539306640625,146.46539306640625,146.46539306640625,146.46539306640625,2191,0.0,0.0
2024-08-15 11:59:00-04:00,146.46499633789062,146.46499633789062,146.46499633789062,146.46499633789062,379,0.0,0.0
2024-08-15 12:00:00-04:00,146.46499633789062,146.46499633789062,146.42999267578125,146.42999267578125,1022,0.0,0.0
2024-08-15 12:03:00-04:00,146.4499969482422,146.4499969482422,146.4499969482422,146.4499969482422,244,0.0,0.0
2024-08-15 12:06:00-04:00,146.4499969482422,146.4499969482422,146.4499969482422,146.4499969482422,461,0.0,0.0
2024-08-15 12:08:00-04:00,146.5854949951172,146.61900329589844,146.52999877929688,146.52999877929688,3178,0.0,0.0
2024-08-15 12:14:00-04:00,146.5885009765625,146.5885009765625,146.5885009765625,146.5885009765625,190,0.0,0.0
2024-08-15 12:15:00-04:00,146.60000610351562,146.60000610351562,146.60000610351562,146.60000610351562,361,0.0,0.0
2024-08-15 12:16:00-04:00,146.60000610351562,146.60000610351562,146.58999633789062,146.58999633789062,1279,0.0,0.0
2024-08-15 12:21:00-04:00,146.49000549316406,146.60000610351562,146.44000244140625,146.44000244140625,7963,0.0,0.0
2024-08-15 12:22:00-04:00,146.44000244140625,146.5800018310547,146.44000244140625,146.5800018310547,1679,0.0,0.0
2024-08-15 12:25:00-04:00,146.66000366210938,146.66000366210938,146.625,146.625,554,0.0,0.0
2024-08-15 12:27:00-04:00,146.55499267578125,146.55499267578125,146.55499267578125,146.55499267578125,190,0.0,0.0
2024-08-15 12:28:00-04:00,146.64999389648438,146.79299926757812,146.64999389648438,146.72999572753906,2730,0.0,0.0
2024-08-15 12:32:00-04:00,146.8249969482422,146.8249969482422,146.8249969482422,146.8249969482422,481,0.0,0.0
2024-08-15 12:41:00-04:00,146.82000732421875,146.82000732421875,146.82000732421875,146.82000732421875,329,0.0,0.0
2024-08-15 12:42:00-04:00,146.69000244140625,146.69000244140625,146.69000244140625,146.69000244140625,241,0.0,0.0
2024-08-15 12:43:00-04:00,146.66000366210938,146.68499755859375,146.64999389648438,146.68499755859375,682,0.0,0.0
2024-08-15 12:44:00-04:00,146.57000732421875,146.57000732421875,146.57000732421875,146.57000732421875,117,0.0,0.0
2024-08-15 12:45:00-04:00,146.63499450683594,146.63499450683594,146.60000610351562,146.60000610351562,490,0.0,0.0
2024-08-15 12:53:00-04:00,146.75,146.75,146.75,146.75,207,0.0,0.0
2024-08-15 12:54:00-04:00,146.65499877929688,146.65499877929688,146.65499877929688,146.65499877929688,334,0.0,0.0
2024-08-15 12:57:00-04:00,146.52999877929688,146.52999877929688,146.52999877929688,146.52999877929688,345,0.0,0.0
2024-08-15 13:06:00-04:00,146.66000366210938,146.72000122070312,146.66000366210938,146.72000122070312,456,0.0,0.0
2024-08-15 13:08:00-04:00,146.72000122070312,146.72000122070312,146.64500427246094,146.64500427246094,940,0.0,0.0
2024-08-15 13:10:00-04:00,146.72500610351562,146.74000549316406,146.72500610351562,146.72999572753906,1656,0.0,0.0
2024-08-15 13:13:00-04:00,146.83999633789062,146.83999633789062,146.83999633789062,146.83999633789062,160,0.0,0.0
2024-08-15 13:14:00-04:00,146.77000427246094,146.83999633789062,146.77000427246094,146.83999633789062,393,0.0,0.0
2024-08-15 13:16:00-04:00,146.75999450683594,146.75999450683594,146.75999450683594,146.75999450683594,405,0.0,0.0
2024-08-15 13:20:00-04:00,146.8000030517578,146.83999633789062,146.8000030517578,146.83999633789062,462,0.0,0.0
2024-08-15 13:22:00-04:00,146.7899932861328,146.7899932861328,146.77499389648438,146.77499389648438,230,0.0,0.0
2024-08-15 13:23:00-04:00,146.77499389648438,146.7899932861328,146.77499389648438,146.7899932861328,366,0.0,0.0
2024-08-15 13:24:00-04:00,146.77000427246094,146.77000427246094,146.77000427246094,146.77000427246094,748,0.0,0.0
2024-08-15 13:26:00-04:00,146.83999633789062,147.00999450683594,146.8350067138672,147.00999450683594,1877,0.0,0.0
2024-08-15 13:28:00-04:00,146.8699951171875,146.8699951171875,146.8699951171875,146.8699951171875,308,0.0,0.0
2024-08-15 13:32:00-04:00,146.89500427246094,146.89500427246094,146.89500427246094,146.89500427246094,229,0.0,0.0
2024-08-15 13:39:00-04:00,146.86000061035156,146.86000061035156,146.86000061035156,146.86000061035156,167,0.0,0.0
2024-08-15 13:40:00-04:00,146.8000030517578,146.8000030517578,146.8000030517578,146.8000030517578,268,0.0,0.0
2024-08-15 13:46:00-04:00,146.82899475097656,146.86000061035156,146.82899475097656,146.86000061035156,355,0.0,0.0
2024-08-15 13:47:00-04:00,146.8699951171875,146.8699951171875,146.75,146.85000610351562,2322,0.0,0.0
2024-08-15 13:48:00-04:00,146.85000610351562,146.85000610351562,146.85000610351562,146.85000610351562,206,0.0,0.0
2024-08-15 13:53:00-04:00,147.00999450683594,147.00999450683594,146.88999938964844,146.9600067138672,4069,0.0,0.0
2024-08-15 13:59:00-04:00,146.90499877929688,146.99000549316406,146.90499877929688,146.99000549316406,547,0.0,0.0
2024-08-15 14:01:00-04:00,146.97000122070312,146.97000122070312,146.97000122070312,146.97000122070312,349,0.0,0.0
2024-08-15 14:03:00-04:00,146.99000549316406,147.02000427246094,146.99000549316406,147.02000427246094,814,0.0,0.0
2024-08-15 14:04:00-04:00,147.07000732421875,147.07000732421875,147.0449981689453,147.0449981689453,523,0.0,0.0
2024-08-15 14:07:00-04:00,147.0,147.0,147.0,147.0,498,0.0,0.0
2024-08-15 14:09:00-04:00,147.0,147.0,147.0,147.0,500,0.0,0.0
2024-08-15 14:11:00-04:00,146.97500610351562,146.97500610351562,146.97500610351562,146.97500610351562,798,0.0,0.0
2024-08-15 14:16:00-04:00,146.97500610351562,147.0,146.92999267578125,146.96499633789062,1690,0.0,0.0
2024-08-15 14:17:00-04:00,147.00999450683594,147.00999450683594,146.94000244140625,146.94000244140625,588,0.0,0.0
2024-08-15 14:18:00-04:00,147.02000427246094,147.02000427246094,146.9600067138672,146.9600067138672,309,0.0,0.0
2024-08-15 14:19:00-04:00,147.02000427246094,147.02000427246094,146.9600067138672,146.9600067138672,682,0.0,0.0
2024-08-15 14:22:00-04:00,147.0,147.0,147.0,147.0,331,0.0,0.0
2024-08-15 14:23:00-04:00,146.89999389648438,147.0,146.89999389648438,147.0,652,0.0,0.0
2024-08-15 14:24:00-04:00,147.0,147.0,147.0,147.0,359,0.0,0.0
2024-08-15 14:26:00-04:00,147.0,147.0,146.92999267578125,146.9600067138672,666,0.0,0.0
2024-08-15 14:27:00-04:00,146.9600067138672,147.0,146.9600067138672,147.0,436,0.0,0.0
2024-08-15 14:29:00-04:00,146.94000244140625,146.94000244140625,146.94000244140625,146.94000244140625,456,0.0,0.0
2024-08-15 14:30:00-04:00,146.9600067138672,147.0,146.9600067138672,147.0,620,0.0,0.0
2024-08-15 14:31:00-04:00,146.97999572753906,146.97999572753906,146.9600067138672,146.9600067138672,521,0.0,0.0
2024-08-15 14:32:00-04:00,146.9600067138672,147.0,146.9600067138672,147.0,497,0.0,0.0
2024-08-15 14:33:00-04:00,147.0,147.0,146.9600067138672,147.0,318,0.0,0.0
2024-08-15 14:34:00-04:00,146.9600067138672,147.02000427246094,146.9600067138672,146.9600067138672,4932,0.0,0.0
2024-08-15 14:35:00-04:00,146.9600067138672,146.9600067138672,146.9600067138672,146.9600067138672,200,0.0,0.0
2024-08-15 14:36:00-04:00,146.94000244140625,146.9600067138672,146.94000244140625,146.9600067138672,373,0.0,0.0
2024-08-15 14:37:00-04:00,146.94000244140625,146.9600067138672,146.89999389648438,146.9550018310547,2152,0.0,0.0
2024-08-15 14:38:00-04:00,146.92999267578125,146.92999267578125,146.8300018310547,146.8300018310547,431,0.0,0.0
2024-08-15 14:39:00-04:00,146.82000732421875,147.0,146.82000732421875,147.0,2397,0.0,0.0
2024-08-15 14:40:00-04:00,147.0399932861328,147.0399932861328,147.0399932861328,147.0399932861328,261,0.0,0.0
2024-08-15 14:42:00-04:00,146.94500732421875,146.94500732421875,146.94500732421875,146.94500732421875,144,0.0,0.0
2024-08-15 14:44:00-04:00,146.9550018310547,146.99000549316406,146.9199981689453,146.99000549316406,1059,0.0,0.0
2024-08-15 14:45:00-04:00,146.98500061035156,146.98500061035156,146.98500061035156,146.98500061035156,229,0.0,0.0
2024-08-15 14:46:00-04:00,146.97999572753906,147.02999877929688,146.97999572753906,147.02999877929688,661,0.0,0.0
2024-08-15 14:48:00-04:00,146.98500061035156,146.98500061035156,146.98500061035156,146.98500061035156,144,0.0,0.0
2024-08-15 14:49:00-04:00,146.98500061035156,146.98500061035156,146.97999572753906,146.97999572753906,576,0.0,0.0
2024-08-15 14:52:00-04:00,146.99000549316406,146.9949951171875,146.9499969482422,146.9949951171875,976,0.0,0.0
2024-08-15 14:53:00-04:00,146.9949951171875,146.9949951171875,146.94000244140625,146.94000244140625,951,0.0,0.0
2024-08-15 14:54:00-04:00,146.99000549316406,146.99000549316406,146.99000549316406,146.99000549316406,443,0.0,0.0
2024-08-15 14:57:00-04:00,146.9949951171875,146.9949951171875,146.9949951171875,146.9949951171875,278,0.0,0.0
2024-08-15 14:58:00-04:00,146.9499969482422,146.9499969482422,146.9499969482422,146.9499969482422,102,0.0,0.0
2024-08-15 14:59:00-04:00,146.97000122070312,147.0,146.97000122070312,146.9949951171875,1275,0.0,0.0
2024-08-15 15:00:00-04:00,146.97999572753906,147.0,146.97999572753906,147.0,944,0.0,0.0
2024-08-15 15:01:00-04:00,147.0399932861328,147.10000610351562,146.97000122070312,146.97000122070312,4645,0.0,0.0
2024-08-15 15:02:00-04:00,146.98500061035156,147.0,146.98500061035156,147.0,903,0.0,0.0
2024-08-15 15:03:00-04:00,147.00999450683594,147.00999450683594,147.00999450683594,147.00999450683594,151,0.0,0.0
2024-08-15 15:04:00-04:00,147.0,147.0,147.0,147.0,452,0.0,0.0
2024-08-15 15:05:00-04:00,147.0,147.0,147.0,147.0,435,0.0,0.0
2024-08-15 15:07:00-04:00,146.98049926757812,146.98049926757812,146.98049926757812,146.98049926757812,124,0.0,0.0
2024-08-15 15:09:00-04:00,146.9949951171875,146.9949951171875,146.99000549316406,146.99000549316406,643,0.0,0.0
2024-08-15 15:10:00-04:00,146.99000549316406,146.99000549316406,146.94000244140625,146.94000244140625,819,0.0,0.0
2024-08-15 15:11:00-04:00,146.92999267578125,147.0,146.92999267578125,147.0,1308,0.0,0.0
2024-08-15 15:12:00-04:00,146.97000122070312,147.02000427246094,146.97000122070312,147.02000427246094,813,0.0,0.0
2024-08-15 15:15:00-04:00,146.96499633789062,146.96499633789062,146.96499633789062,146.96499633789062,298,0.0,0.0
2024-08-15 15:17:00-04:00,146.92999267578125,147.0399932861328,146.92799377441406,147.03500366210938,3099,0.0,0.0
2024-08-15 15:21:00-04:00,147.0399932861328,147.0449981689453,147.0399932861328,147.0449981689453,438,0.0,0.0
2024-08-15 15:23:00-04:00,147.0800018310547,147.22500610351562,147.0800018310547,147.22500610351562,1903,0.0,0.0
2024-08-15 15:24:00-04:00,147.2135009765625,147.2135009765625,147.2135009765625,147.2135009765625,211,0.0,0.0
2024-08-15 15:25:00-04:00,147.14999389648438,147.14999389648438,147.08999633789062,147.08999633789062,836,0.0,0.0
2024-08-15 15:27:00-04:00,147.1199951171875,147.1199951171875,147.1199951171875,147.1199951171875,197,0.0,0.0
2024-08-15 15:29:00-04:00,147.1300048828125,147.1300048828125,147.1300048828125,147.1300048828125,324,0.0,0.0
2024-08-15 15:30:00-04:00,147.0800018310547,147.125,147.0800018310547,147.125,420,0.0,0.0
2024-08-15 15:31:00-04:00,147.10000610351562,147.10000610351562,147.10000610351562,147.10000610351562,536,0.0,0.0
2024-08-15 15:32:00-04:00,147.10000610351562,147.1300048828125,147.10000610351562,147.1300048828125,226,0.0,0.0
2024-08-15 15:33:00-04:00,147.15699768066406,147.15699768066406,147.10000610351562,147.10000610351562,693,0.0,0.0
2024-08-15 15:34:00-04:00,147.09500122070312,147.22000122070312,147.02999877929688,147.2050018310547,4234,0.0,0.0
2024-08-15 15:35:00-04:00,147.2050018310547,147.24000549316406,147.1999969482422,147.24000549316406,790,0.0,0.0
2024-08-15 15:36:00-04:00,147.23500061035156,147.23500061035156,147.18499755859375,147.21499633789062,920,0.0,0.0
2024-08-15 15:37:00-04:00,147.21499633789062,147.22999572753906,147.21499633789062,147.22500610351562,613,0.0,0.0
2024-08-15 15:38:00-04:00,147.1999969482422,147.1999969482422,147.19500732421875,147.19500732421875,662,0.0,0.0
2024-08-15 15:39:00-04:00,147.19500732421875,147.22000122070312,147.19500732421875,147.1999969482422,823,0.0,0.0
2024-08-15 15:40:00-04:00,147.19500732421875,147.33999633789062,147.19500732421875,147.30999755859375,4613,0.0,0.0
2024-08-15 15:41:00-04:00,147.27999877929688,147.27999877929688,147.27499389648438,147.27499389648438,662,0.0,0.0
2024-08-15 15:42:00-04:00,147.1999969482422,147.24000549316406,147.1999969482422,147.24000549316406,989,0.0,0.0
2024-08-15 15:43:00-04:00,147.17999267578125,147.1999969482422,147.13999938964844,147.19500732421875,3165,0.0,0.0
2024-08-15 15:44:00-04:00,147.1999969482422,147.1999969482422,147.1699981689453,147.19000244140625,1950,0.0,0.0
2024-08-15 15:45:00-04:00,147.19000244140625,147.24000549316406,147.1750030517578,147.18499755859375,2923,0.0,0.0
2024-08-15 15:46:00-04:00,147.1999969482422,147.24000549316406,147.1999969482422,147.24000549316406,576,0.0,0.0
2024-08-15 15:47:00-04:00,147.1999969482422,147.1999969482422,147.1999969482422,147.1999969482422,590,0.0,0.0
2024-08-15 15:48:00-04:00,147.1699981689453,147.1699981689453,146.8350067138672,146.8350067138672,4051,0.0,0.0
2024-08-15 15:49:00-04:00,146.8350067138672,146.8350067138672,146.8000030517578,146.8000030517578,569,0.0,0.0
2024-08-15 15:50:00-04:00,146.80999755859375,146.94000244140625,146.80999755859375,146.89500427246094,6390,0.0,0.0
2024-08-15 15:51:00-04:00,146.9199981689453,146.97999572753906,146.8300018310547,146.84230041503906,5222,0.0,0.0
2024-08-15 15:52:00-04:00,146.83999633789062,146.83999633789062,146.57000732421875,146.57000732421875,2406,0.0,0.0
2024-08-15 15:53:00-04:00,146.63999938964844,146.7100067138672,146.61000061035156,146.61000061035156,2875,0.0,0.0
2024-08-15 15:54:00-04:00,146.5800018310547,146.6300048828125,146.49000549316406,146.5850067138672,3016,0.0,0.0
2024-08-15 15:55:00-04:00,146.5850067138672,146.77749633789062,146.5850067138672,146.7100067138672,3407,0.0,0.0
2024-08-15 15:56:00-04:00,146.63999938964844,146.74000549316406,146.6300048828125,146.6999969482422,4055,0.0,0.0
2024-08-15 15:57:00-04:00,146.6999969482422,146.72000122070312,146.64999389648438,146.72000122070312,5019,0.0,0.0
2024-08-15 15:58:00-04:00,146.67999267578125,146.72999572753906,146.6699981689453,146.72999572753906,3231,0.0,0.0
2024-08-15 15:59:00-04:00,146.8300018310547,147.07000732421875,146.8300018310547,146.94000244140625,8322,0.0,0.0
2024-08-16 09:30:00-04:00,146.11000061035156,146.7550048828125,146.11000061035156,146.61000061035156,2204,0.0,0.0
2024-08-16 09:31:00-04:00,146.61000061035156,146.61000061035156,146.61000061035156,146.61000061035156,203,0.0,0.0
2024-08-16 09:32:00-04:00,146.61000061035156,146.61000061035156,146.61000061035156,146.61000061035156,802,0.0,0.0
2024-08-16 09:34:00-04:00,145.89999389648438,146.58999633789062,145.8699951171875,146.50999450683594,1856,0.0,0.0
2024-08-16 09:35:00-04:00,146.50999450683594,146.50999450683594,146.4499969482422,146.4499969482422,937,0.0,0.0
2024-08-16 09:36:00-04:00,146.55999755859375,146.8000030517578,146.55999755859375,146.74000549316406,1282,0.0,0.0
2024-08-16 09:37:00-04:00,146.72000122070312,146.75999450683594,146.3000030517578,146.5399932861328,5052,0.0,0.0
2024-08-16 09:38:00-04:00,146.25,146.25,145.88999938964844,146.0,2154,0.0,0.0
2024-08-16 09:39:00-04:00,145.8800048828125,146.0500030517578,145.82000732421875,145.82000732421875,582,0.0,0.0
2024-08-16 09:40:00-04:00,145.61000061035156,145.61000061035156,145.61000061035156,145.61000061035156,966,0.0,0.0
2024-08-16 09:41:00-04:00,145.9499969482422,146.0800018310547,145.8800048828125,145.9550018310547,1933,0.0,0.0
2024-08-16 09:43:00-04:00,146.4600067138672,146.49000549316406,146.39999389648438,146.4600067138672,2301,0.0,0.0
2024-08-16 09:44:00-04:00,146.49000549316406,146.61000061035156,146.38999938964844,146.61000061035156,920,0.0,0.0
2024-08-16 09:45:00-04:00,146.53500366210938,146.53500366210938,146.53500366210938,146.53500366210938,217,0.0,0.0
2024-08-16 09:47:00-04:00,146.10000610351562,146.35499572753906,146.10000610351562,146.35499572753906,328,0.0,0.0
2024-08-16 09:48:00-04:00,146.14999389648438,146.14999389648438,146.14999389648438,146.14999389648438,151,0.0,0.0
2024-08-16 09:49:00-04:00,146.0800018310547,146.0800018310547,145.9499969482422,146.0,2171,0.0,0.0
2024-08-16 09:54:00-04:00,146.14500427246094,146.27000427246094,146.14500427246094,146.27000427246094,534,0.0,0.0
2024-08-16 09:59:00-04:00,146.0,146.39999389648438,146.0,146.39999389648438,1752,0.0,0.0
2024-08-16 10:03:00-04:00,146.61500549316406,146.61500549316406,146.61500549316406,146.61500549316406,378,0.0,0.0
2024-08-16 10:05:00-04:00,146.24000549316406,146.24000549316406,146.22000122070312,146.22000122070312,244,0.0,0.0
2024-08-16 10:07:00-04:00,146.5800018310547,146.5800018310547,146.52000427246094,146.52000427246094,201,0.0,0.0
2024-08-16 10:08:00-04:00,146.41000366210938,146.41000366210938,146.05999755859375,146.05999755859375,866,0.0,0.0
2024-08-16 10:11:00-04:00,146.10000610351562,146.10000610351562,146.10000610351562,146.10000610351562,491,0.0,0.0
2024-08-16 10:19:00-04:00,146.13999938964844,146.13999938964844,146.13999938964844,146.13999938964844,322,0.0,0.0
2024-08-16 10:20:00-04:00,146.3000030517578,146.3000030517578,146.2050018310547,146.2050018310547,544,0.0,0.0
2024-08-16 10:26:00-04:00,146.38999938964844,146.4949951171875,146.25999450683594,146.25999450683594,4501,0.0,0.0
2024-08-16 10:27:00-04:00,146.27999877929688,146.27999877929688,146.27999877929688,146.27999877929688,364,0.0,0.0
2024-08-16 10:29:00-04:00,146.35000610351562,146.35000610351562,146.25999450683594,146.25999450683594,639,0.0,0.0
2024-08-16 10:30:00-04:00,146.19500732421875,146.19500732421875,146.19500732421875,146.19500732421875,189,0.0,0.0
2024-08-16 10:32:00-04:00,146.0,146.0,146.0,146.0,421,0.0,0.0
2024-08-16 10:34:00-04:00,146.0,146.0,146.0,146.0,1458,0.0,0.0
2024-08-16 10:35:00-04:00,145.86000061035156,145.86000061035156,145.86000061035156,145.86000061035156,433,0.0,0.0
2024-08-16 10:40:00-04:00,145.67999267578125,145.97000122070312,145.67999267578125,145.9600067138672,3275,0.0,0.0
2024-08-16 10:41:00-04:00,145.75999450683594,145.75999450683594,145.75999450683594,145.75999450683594,267,0.0,0.0
2024-08-16 10:43:00-04:00,145.83999633789062,145.83999633789062,145.77000427246094,145.77000427246094,777,0.0,0.0
2024-08-16 10:51:00-04:00,145.72000122070312,145.8699951171875,145.72000122070312,145.8699951171875,428,0.0,0.0
2024-08-16 10:52:00-04:00,145.7949981689453,145.7949981689453,145.7949981689453,145.7949981689453,180,0.0,0.0
2024-08-16 10:54:00-04:00,145.7949981689453,145.7949981689453,145.7949981689453,145.7949981689453,1082,0.0,0.0
2024-08-16 10:58:00-04:00,145.7899932861328,145.7899932861328,145.7899932861328,145.7899932861328,187,0.0,0.0
2024-08-16 11:00:00-04:00,145.7100067138672,145.7100067138672,145.7100067138672,145.7100067138672,173,0.0,0.0
2024-08-16 11:01:00-04:00,145.78500366210938,145.78500366210938,145.78500366210938,145.78500366210938,493,0.0,0.0
2024-08-16 11:06:00-04:00,145.8000030517578,145.8000030517578,145.8000030517578,145.8000030517578,428,0.0,0.0
2024-08-16 11:07:00-04:00,145.75999450683594,145.75999450683594,145.75999450683594,145.75999450683594,224,0.0,0.0
2024-08-16 11:08:00-04:00,145.75999450683594,145.81500244140625,145.75999450683594,145.81500244140625,763,0.0,0.0
2024-08-16 11:09:00-04:00,145.83999633789062,145.83999633789062,145.83999633789062,145.83999633789062,484,0.0,0.0
2024-08-16 11:10:00-04:00,145.82000732421875,145.82000732421875,145.82000732421875,145.82000732421875,132,0.0,0.0
2024-08-16 11:11:00-04:00,145.8300018310547,145.8300018310547,145.8300018310547,145.8300018310547,418,0.0,0.0
2024-08-16 11:13:00-04:00,145.8300018310547,145.9149932861328,145.8300018310547,145.9149932861328,697,0.0,0.0
2024-08-16 11:16:00-04:00,145.86000061035156,145.88999938964844,145.86000061035156,145.88999938964844,512,0.0,0.0
2024-08-16 11:18:00-04:00,145.89999389648438,145.94000244140625,145.89999389648438,145.94000244140625,363,0.0,0.0
2024-08-16 11:19:00-04:00,145.97000122070312,145.97999572753906,145.8052978515625,145.97999572753906,726,0.0,0.0
2024-08-16 11:20:00-04:00,145.97000122070312,145.97999572753906,145.97000122070312,145.97999572753906,1270,0.0,0.0
2024-08-16 11:32:00-04:00,145.99000549316406,145.99000549316406,145.99000549316406,145.99000549316406,342,0.0,0.0
2024-08-16 11:33:00-04:00,146.0050048828125,146.0050048828125,146.0050048828125,146.0050048828125,104,0.0,0.0
2024-08-16 11:34:00-04:00,145.88999938964844,145.94500732421875,145.86000061035156,145.94500732421875,892,0.0,0.0
2024-08-16 11:35:00-04:00,145.94500732421875,145.94500732421875,145.94500732421875,145.94500732421875,183,0.0,0.0
2024-08-16 11:36:00-04:00,145.94500732421875,145.94500732421875,145.94500732421875,145.94500732421875,223,0.0,0.0
2024-08-16 11:38:00-04:00,145.83999633789062,146.0500030517578,145.83999633789062,146.0500030517578,2287,0.0,0.0
2024-08-16 11:39:00-04:00,146.02000427246094,146.02000427246094,145.89500427246094,145.89500427246094,371,0.0,0.0
2024-08-16 11:40:00-04:00,145.94000244140625,145.94000244140625,145.94000244140625,145.94000244140625,140,0.0,0.0
2024-08-16 11:41:00-04:00,145.94000244140625,145.94500732421875,145.91000366210938,145.94500732421875,1258,0.0,0.0
2024-08-16 11:43:00-04:00,146.0500030517578,146.0500030517578,146.0500030517578,146.0500030517578,172,0.0,0.0
2024-08-16 11:46:00-04:00,145.9600067138672,145.9600067138672,145.9499969482422,145.9499969482422,570,0.0,0.0
2024-08-16 11:50:00-04:00,146.03500366210938,146.03500366210938,146.03500366210938,146.03500366210938,470,0.0,0.0
2024-08-16 11:55:00-04:00,146.10000610351562,146.16000366210938,146.10000610351562,146.16000366210938,782,0.0,0.0
2024-08-16 11:56:00-04:00,146.14500427246094,146.14500427246094,146.14500427246094,146.14500427246094,347,0.0,0.0
2024-08-16 11:59:00-04:00,146.14500427246094,146.14500427246094,146.14500427246094,146.14500427246094,252,0.0,0.0
2024-08-16 12:00:00-04:00,146.14500427246094,146.19000244140625,146.10499572753906,146.10499572753906,1172,0.0,0.0
2024-08-16 12:02:00-04:00,146.14999389648438,146.22000122070312,146.14999389648438,146.22000122070312,483,0.0,0.0
2024-08-16 12:03:00-04:00,146.22000122070312,146.22000122070312,146.22000122070312,146.22000122070312,638,0.0,0.0
2024-08-16 12:05:00-04:00,146.27999877929688,146.34500122070312,146.27000427246094,146.34500122070312,469,0.0,0.0
2024-08-16 12:11:00-04:00,146.13999938964844,146.2449951171875,146.13999938964844,146.2449951171875,856,0.0,0.0
2024-08-16 12:13:00-04:00,146.27499389648438,146.27499389648438,146.27499389648438,146.27499389648438,630,0.0,0.0
2024-08-16 12:14:00-04:00,146.32000732421875,146.35000610351562,146.25999450683594,146.2949981689453,3319,0.0,0.0
2024-08-16 12:15:00-04:00,146.35499572753906,146.35499572753906,146.35499572753906,146.35499572753906,104,0.0,0.0
2024-08-16 12:16:00-04:00,146.2949981689453,146.2949981689453,146.2949981689453,146.2949981689453,107,0.0,0.0
2024-08-16 12:17:00-04:00,146.35000610351562,146.36000061035156,146.3249969482422,146.3249969482422,1110,0.0,0.0
2024-08-16 12:19:00-04:00,146.35000610351562,146.35000610351562,146.35000610351562,146.35000610351562,239,0.0,0.0
2024-08-16 12:21:00-04:00,146.30999755859375,146.3699951171875,146.22000122070312,146.22999572753906,12009,0.0,0.0
2024-08-16 12:26:00-04:00,146.25999450683594,146.25999450683594,146.1300048828125,146.1300048828125,723,0.0,0.0
2024-08-16 12:27:00-04:00,146.10000610351562,146.10000610351562,146.09500122070312,146.10000610351562,1050,0.0,0.0
2024-08-16 12:28:00-04:00,146.14999389648438,146.1699981689453,146.14999389648438,146.14999389648438,1422,0.0,0.0
2024-08-16 12:30:00-04:00,146.1999969482422,146.1999969482422,146.1999969482422,146.1999969482422,326,0.0,0.0
2024-08-16 12:32:00-04:00,146.1999969482422,146.1999969482422,146.1999969482422,146.1999969482422,304,0.0,0.0
2024-08-16 12:33:00-04:00,146.23829650878906,146.31500244140625,146.23829650878906,146.31500244140625,1586,0.0,0.0
2024-08-16 12:34:00-04:00,146.31500244140625,146.31500244140625,146.31500244140625,146.31500244140625,310,0.0,0.0
2024-08-16 12:41:00-04:00,146.32000732421875,146.32000732421875,146.32000732421875,146.32000732421875,256,0.0,0.0
2024-08-16 12:43:00-04:00,146.2574005126953,146.2574005126953,146.2574005126953,146.2574005126953,981,0.0,0.0
2024-08-16 12:45:00-04:00,146.24000549316406,146.24000549316406,146.22000122070312,146.22000122070312,365,0.0,0.0
2024-08-16 12:47:00-04:00,146.22000122070312,146.22000122070312,146.22000122070312,146.22000122070312,190,0.0,0.0
2024-08-16 12:49:00-04:00,146.1999969482422,146.1999969482422,146.1999969482422,146.1999969482422,210,0.0,0.0
2024-08-16 12:53:00-04:00,146.22999572753906,146.22999572753906,146.22999572753906,146.22999572753906,269,0.0,0.0
2024-08-16 12:54:00-04:00,146.13999938964844,146.13999938964844,146.10000610351562,146.10000610351562,1375,0.0,0.0
2024-08-16 12:57:00-04:00,146.1999969482422,146.27999877929688,146.1999969482422,146.27999877929688,1606,0.0,0.0
2024-08-16 12:59:00-04:00,146.2050018310547,146.2050018310547,146.1999969482422,146.1999969482422,403,0.0,0.0
2024-08-16 13:08:00-04:00,146.17999267578125,146.17999267578125,146.17999267578125,146.17999267578125,104,0.0,0.0
2024-08-16 13:09:00-04:00,146.10000610351562,146.1300048828125,146.10000610351562,146.1300048828125,708,0.0,0.0
2024-08-16 13:15:00-04:00,146.15499877929688,146.15499877929688,146.15499877929688,146.15499877929688,110,0.0,0.0
2024-08-16 13:16:00-04:00,146.10000610351562,146.10000610351562,146.10000610351562,146.10000610351562,1581,0.0,0.0
2024-08-16 13:17:00-04:00,146.14999389648438,146.17999267578125,146.14999389648438,146.17999267578125,973,0.0,0.0
2024-08-16 13:20:00-04:00,146.19000244140625,146.19000244140625,146.19000244140625,146.19000244140625,106,0.0,0.0
2024-08-16 13:21:00-04:00,146.14999389648438,146.14999389648438,146.14999389648438,146.14999389648438,235,0.0,0.0
2024-08-16 13:22:00-04:00,146.17999267578125,146.2949981689453,146.17999267578125,146.2949981689453,1521,0.0,0.0
2024-08-16 13:23:00-04:00,146.38999938964844,146.38999938964844,146.35000610351562,146.3699951171875,1308,0.0,0.0
2024-08-16 13:32:00-04:00,146.0800018310547,146.0800018310547,146.0800018310547,146.0800018310547,438,0.0,0.0
2024-08-16 13:38:00-04:00,146.16000366210938,146.16000366210938,146.13999938964844,146.13999938964844,622,0.0,0.0
2024-08-16 13:41:00-04:00,146.17999267578125,146.17999267578125,146.17999267578125,146.17999267578125,404,0.0,0.0
2024-08-16 13:42:00-04:00,146.24000549316406,146.25,146.24000549316406,146.25,992,0.0,0.0
2024-08-16 13:44:00-04:00,146.1999969482422,146.1999969482422,146.19000244140625,146.19000244140625,653,0.0,0.0
2024-08-16 13:45:00-04:00,146.2100067138672,146.2100067138672,146.2100067138672,146.2100067138672,184,0.0,0.0
2024-08-16 13:47:00-04:00,146.19000244140625,146.22999572753906,146.19000244140625,146.22999572753906,268,0.0,0.0
2024-08-16 13:48:00-04:00,146.19000244140625,146.19000244140625,146.19000244140625,146.19000244140625,117,0.0,0.0
2024-08-16 13:49:00-04:00,146.22000122070312,146.22000122070312,146.22000122070312,146.22000122070312,464,0.0,0.0
2024-08-16 13:50:00-04:00,146.1999969482422,146.1999969482422,146.1999969482422,146.1999969482422,194,0.0,0.0
2024-08-16 13:51:00-04:00,146.22000122070312,146.22000122070312,146.22000122070312,146.22000122070312,117,0.0,0.0
2024-08-16 13:53:00-04:00,146.24000549316406,146.24000549316406,146.24000549316406,146.24000549316406,157,0.0,0.0
2024-08-16 13:54:00-04:00,146.19000244140625,146.19000244140625,146.19000244140625,146.19000244140625,687,0.0,0.0
2024-08-16 13:56:00-04:00,146.24000549316406,146.35499572753906,146.24000549316406,146.35000610351562,1923,0.0,0.0
2024-08-16 14:00:00-04:00,146.27000427246094,146.3249969482422,146.27000427246094,146.3249969482422,582,0.0,0.0
2024-08-16 14:01:00-04:00,146.25,146.25,146.25,146.25,455,0.0,0.0
2024-08-16 14:04:00-04:00,146.2100067138672,146.2100067138672,146.2100067138672,146.2100067138672,519,0.0,0.0
2024-08-16 14:08:00-04:00,146.17999267578125,146.17999267578125,146.1300048828125,146.17999267578125,762,0.0,0.0
2024-08-16 14:09:00-04:00,146.1999969482422,146.1999969482422,146.1999969482422,146.1999969482422,228,0.0,0.0
2024-08-16 14:10:00-04:00,146.25,146.25,146.25,146.25,351,0.0,0.0
2024-08-16 14:13:00-04:00,146.2100067138672,146.2100067138672,146.14999389648438,146.17999267578125,1403,0.0,0.0
2024-08-16 14:15:00-04:00,146.24000549316406,146.25,146.24000549316406,146.24000549316406,1162,0.0,0.0
2024-08-16 14:18:00-04:00,146.27000427246094,146.30999755859375,146.27000427246094,146.30999755859375,1334,0.0,0.0
2024-08-16 14:19:00-04:00,146.30999755859375,146.30999755859375,146.30999755859375,146.30999755859375,448,0.0,0.0
2024-08-16 14:21:00-04:00,146.3000030517578,146.3000030517578,146.3000030517578,146.3000030517578,300,0.0,0.0
2024-08-16 14:25:00-04:00,146.3000030517578,146.3000030517578,146.3000030517578,146.3000030517578,138,0.0,0.0
2024-08-16 14:26:00-04:00,146.25999450683594,146.25999450683594,146.25,146.25999450683594,1294,0.0,0.0
2024-08-16 14:31:00-04:00,146.3000030517578,146.3800048828125,146.3000030517578,146.35000610351562,2189,0.0,0.0
2024-08-16 14:32:00-04:00,146.35000610351562,146.35000610351562,146.35000610351562,146.35000610351562,411,0.0,0.0
2024-08-16 14:33:00-04:00,146.3800048828125,146.3800048828125,146.3000030517578,146.32000732421875,1103,0.0,0.0
2024-08-16 14:37:00-04:00,146.35000610351562,146.35000610351562,146.35000610351562,146.35000610351562,409,0.0,0.0
2024-08-16 14:40:00-04:00,146.3300018310547,146.3699951171875,146.30999755859375,146.35000610351562,1325,0.0,0.0
2024-08-16 14:42:00-04:00,146.3300018310547,146.3300018310547,146.3300018310547,146.3300018310547,354,0.0,0.0
2024-08-16 14:43:00-04:00,146.3070068359375,146.32000732421875,146.3000030517578,146.3000030517578,581,0.0,0.0
2024-08-16 14:45:00-04:00,146.27000427246094,146.27999877929688,146.27000427246094,146.27999877929688,1276,0.0,0.0
2024-08-16 14:47:00-04:00,146.30999755859375,146.30999755859375,146.30999755859375,146.30999755859375,516,0.0,0.0
2024-08-16 14:48:00-04:00,146.38999938964844,146.38999938964844,146.38999938964844,146.38999938964844,158,0.0,0.0
2024-08-16 14:49:00-04:00,146.38499450683594,146.38499450683594,146.38499450683594,146.38499450683594,301,0.0,0.0
2024-08-16 14:52:00-04:00,146.35000610351562,146.35000610351562,146.35000610351562,146.35000610351562,184,0.0,0.0
2024-08-16 14:53:00-04:00,146.3800048828125,146.3800048828125,146.3800048828125,146.3800048828125,331,0.0,0.0
2024-08-16 14:55:00-04:00,146.39500427246094,146.39500427246094,146.39500427246094,146.39500427246094,222,0.0,0.0
2024-08-16 14:56:00-04:00,146.31500244140625,146.31500244140625,146.31500244140625,146.31500244140625,750,0.0,0.0
2024-08-16 14:59:00-04:00,146.41000366210938,146.44000244140625,146.3800048828125,146.3800048828125,1035,0.0,0.0
2024-08-16 15:01:00-04:00,146.26060485839844,146.39999389648438,146.26060485839844,146.3800048828125,528,0.0,0.0
2024-08-16 15:02:00-04:00,146.41969299316406,146.4199981689453,146.35000610351562,146.36000061035156,1763,0.0,0.0
2024-08-16 15:04:00-04:00,146.3000030517578,146.36500549316406,146.3000030517578,146.36500549316406,484,0.0,0.0
2024-08-16 15:05:00-04:00,146.36500549316406,146.36500549316406,146.36500549316406,146.36500549316406,490,0.0,0.0
2024-08-16 15:08:00-04:00,146.30999755859375,146.30999755859375,146.3000030517578,146.3000030517578,573,0.0,0.0
2024-08-16 15:11:00-04:00,146.32009887695312,146.36380004882812,146.32009887695312,146.36380004882812,347,0.0,0.0
2024-08-16 15:12:00-04:00,146.3800048828125,146.38499450683594,146.3800048828125,146.38499450683594,205,0.0,0.0
2024-08-16 15:13:00-04:00,146.3800048828125,146.3800048828125,146.3800048828125,146.3800048828125,519,0.0,0.0
2024-08-16 15:14:00-04:00,146.33999633789062,146.33999633789062,146.33999633789062,146.33999633789062,1089,0.0,0.0
2024-08-16 15:16:00-04:00,146.2949981689453,146.2949981689453,146.2949981689453,146.2949981689453,210,0.0,0.0
2024-08-16 15:17:00-04:00,146.2949981689453,146.2949981689453,146.2949981689453,146.2949981689453,421,0.0,0.0
2024-08-16 15:19:00-04:00,146.27999877929688,146.27999877929688,146.27999877929688,146.27999877929688,1078,0.0,0.0
2024-08-16 15:20:00-04:00,146.32000732421875,146.35000610351562,146.27999877929688,146.35000610351562,2214,0.0,0.0
2024-08-16 15:22:00-04:00,146.3699951171875,146.6199951171875,146.3699951171875,146.58999633789062,3480,0.0,0.0
2024-08-16 15:24:00-04:00,146.55999755859375,146.55999755859375,146.4949951171875,146.4949951171875,816,0.0,0.0
2024-08-16 15:26:00-04:00,146.42999267578125,146.42999267578125,146.42999267578125,146.42999267578125,235,0.0,0.0
2024-08-16 15:27:00-04:00,146.4550018310547,146.4550018310547,146.4550018310547,146.4550018310547,179,0.0,0.0
2024-08-16 15:28:00-04:00,146.48500061035156,146.48500061035156,146.41000366210938,146.41000366210938,506,0.0,0.0
2024-08-16 15:29:00-04:00,146.41000366210938,146.41000366210938,146.38999938964844,146.38999938964844,1043,0.0,0.0
2024-08-16 15:30:00-04:00,146.41000366210938,146.47999572753906,146.3800048828125,146.3800048828125,7045,0.0,0.0
2024-08-16 15:31:00-04:00,146.42999267578125,146.42999267578125,146.42999267578125,146.42999267578125,106,0.0,0.0
2024-08-16 15:32:00-04:00,146.39999389648438,146.47000122070312,146.36000061035156,146.36000061035156,943,0.0,0.0
2024-08-16 15:33:00-04:00,146.40499877929688,146.40499877929688,146.40499877929688,146.40499877929688,496,0.0,0.0
2024-08-16 15:34:00-04:00,146.4499969482422,146.4499969482422,146.4499969482422,146.4499969482422,374,0.0,0.0
2024-08-16 15:35:00-04:00,146.3800048828125,146.38999938964844,146.3800048828125,146.38999938964844,380,0.0,0.0
2024-08-16 15:36:00-04:00,146.41000366210938,146.44000244140625,146.35000610351562,146.35000610351562,1120,0.0,0.0
2024-08-16 15:37:00-04:00,146.4199981689453,146.4250030517578,146.4199981689453,146.4250030517578,1821,0.0,0.0
2024-08-16 15:38:00-04:00,146.38999938964844,146.38999938964844,146.3699951171875,146.3699951171875,805,0.0,0.0
2024-08-16 15:39:00-04:00,146.34500122070312,146.34500122070312,146.34500122070312,146.34500122070312,195,0.0,0.0
2024-08-16 15:40:00-04:00,146.3524932861328,146.39999389648438,146.3524932861328,146.3800048828125,1312,0.0,0.0
2024-08-16 15:41:00-04:00,146.36500549316406,146.36500549316406,146.36500549316406,146.36500549316406,1040,0.0,0.0
2024-08-16 15:43:00-04:00,146.4499969482422,146.4499969482422,146.4499969482422,146.4499969482422,297,0.0,0.0
2024-08-16 15:44:00-04:00,146.4499969482422,146.4499969482422,146.4199981689453,146.43499755859375,1169,0.0,0.0
2024-08-16 15:45:00-04:00,146.4499969482422,146.6199951171875,146.42999267578125,146.6199951171875,2646,0.0,0.0
2024-08-16 15:47:00-04:00,146.61000061035156,146.63999938964844,146.5500030517578,146.61500549316406,889,0.0,0.0
2024-08-16 15:48:00-04:00,146.61500549316406,146.61500549316406,146.61000061035156,146.61000061035156,335,0.0,0.0
2024-08-16 15:49:00-04:00,146.63999938964844,146.63999938964844,146.63999938964844,146.63999938964844,422,0.0,0.0
2024-08-16 15:50:00-04:00,146.64999389648438,146.72500610351562,146.64999389648438,146.69000244140625,2462,0.0,0.0
2024-08-16 15:51:00-04:00,146.6699981689453,146.6699981689453,146.58999633789062,146.58999633789062,1233,0.0,0.0
2024-08-16 15:52:00-04:00,146.5500030517578,146.5500030517578,146.5,146.5,1555,0.0,0.0
2024-08-16 15:53:00-04:00,146.4810028076172,146.5500030517578,146.47999572753906,146.5500030517578,2425,0.0,0.0
2024-08-16 15:54:00-04:00,146.5749969482422,146.5749969482422,146.4550018310547,146.4550018310547,2810,0.0,0.0
2024-08-16 15:55:00-04:00,146.47250366210938,146.64999389648438,146.47250366210938,146.61000061035156,2270,0.0,0.0
2024-08-16 15:56:00-04:00,146.6300048828125,146.72999572753906,146.5850067138672,146.72000122070312,3743,0.0,0.0
2024-08-16 15:57:00-04:00,146.72999572753906,146.72999572753906,146.6699981689453,146.6999969482422,2064,0.0,0.0
2024-08-16 15:58:00-04:00,146.74000549316406,146.77000427246094,146.6999969482422,146.77000427246094,2690,0.0,0.0
2024-08-16 15:59:00-04:00,146.74000549316406,146.83999633789062,146.6300048828125,146.64999389648438,9983,0.0,0.0
