Datetime,Open,High,Low,Close,Volume,Dividends,Stock Splits
2024-09-09 09:30:00-04:00,152.57000732421875,152.57000732421875,152.57000732421875,152.57000732421875,1414,0.0,0.0
2024-09-09 09:32:00-04:00,152.38999938964844,152.38999938964844,152.3800048828125,152.3800048828125,448,0.0,0.0
2024-09-09 09:35:00-04:00,152.4600067138672,152.4600067138672,152.4600067138672,152.4600067138672,295,0.0,0.0
2024-09-09 09:37:00-04:00,152.64999389648438,152.64999389648438,152.3000030517578,152.3000030517578,426,0.0,0.0
2024-09-09 09:43:00-04:00,152.64999389648438,152.64999389648438,152.64999389648438,152.64999389648438,681,0.0,0.0
2024-09-09 09:49:00-04:00,151.89999389648438,151.99000549316406,151.88999938964844,151.99000549316406,1798,0.0,0.0
2024-09-09 09:50:00-04:00,151.9499969482422,152.02999877929688,151.90499877929688,152.02999877929688,915,0.0,0.0
2024-09-09 09:59:00-04:00,151.97000122070312,152.4499969482422,151.97000122070312,152.42999267578125,4782,0.0,0.0
2024-09-09 10:00:00-04:00,152.4499969482422,152.4499969482422,152.4199981689453,152.4199981689453,566,0.0,0.0
2024-09-09 10:03:00-04:00,152.36000061035156,152.36000061035156,152.36000061035156,152.36000061035156,121,0.0,0.0
2024-09-09 10:04:00-04:00,152.36500549316406,152.4600067138672,152.36500549316406,152.4600067138672,548,0.0,0.0
2024-09-09 10:05:00-04:00,152.47000122070312,152.66000366210938,152.47000122070312,152.52000427246094,2164,0.0,0.0
2024-09-09 10:06:00-04:00,152.53500366210938,152.66000366210938,152.53500366210938,152.55999755859375,707,0.0,0.0
2024-09-09 10:07:00-04:00,152.55999755859375,152.55999755859375,152.44000244140625,152.5,3176,0.0,0.0
2024-09-09 10:08:00-04:00,152.38999938964844,152.6300048828125,152.38999938964844,152.6300048828125,918,0.0,0.0
2024-09-09 10:09:00-04:00,152.6699981689453,152.7899932861328,152.57000732421875,152.72999572753906,1418,0.0,0.0
2024-09-09 10:10:00-04:00,152.75,152.80999755859375,152.75,152.80999755859375,1242,0.0,0.0
2024-09-09 10:12:00-04:00,152.93499755859375,152.93499755859375,152.93499755859375,152.93499755859375,222,0.0,0.0
2024-09-09 10:13:00-04:00,152.8699951171875,152.94000244140625,152.82000732421875,152.89999389648438,1305,0.0,0.0
2024-09-09 10:15:00-04:00,152.8800048828125,152.8800048828125,152.8800048828125,152.8800048828125,101,0.0,0.0
2024-09-09 10:16:00-04:00,152.8800048828125,153.05999755859375,152.8800048828125,153.05999755859375,1279,0.0,0.0
2024-09-09 10:17:00-04:00,153.05999755859375,153.05999755859375,153.05999755859375,153.05999755859375,340,0.0,0.0
2024-09-09 10:19:00-04:00,152.9149932861328,152.9149932861328,152.9149932861328,152.9149932861328,252,0.0,0.0
2024-09-09 10:20:00-04:00,152.94000244140625,152.94000244140625,152.94000244140625,152.94000244140625,265,0.0,0.0
2024-09-09 10:22:00-04:00,152.80999755859375,152.80999755859375,152.74000549316406,152.76499938964844,1052,0.0,0.0
2024-09-09 10:24:00-04:00,152.64999389648438,152.64999389648438,152.49000549316406,152.49000549316406,611,0.0,0.0
2024-09-09 10:25:00-04:00,152.4600067138672,152.47000122070312,152.4600067138672,152.47000122070312,791,0.0,0.0
2024-09-09 10:26:00-04:00,152.4550018310547,152.4550018310547,152.4550018310547,152.4550018310547,154,0.0,0.0
2024-09-09 10:27:00-04:00,152.47000122070312,152.47000122070312,152.47000122070312,152.47000122070312,1204,0.0,0.0
2024-09-09 10:35:00-04:00,152.3699951171875,152.3699951171875,152.3699951171875,152.3699951171875,389,0.0,0.0
2024-09-09 10:36:00-04:00,152.2899932861328,152.3800048828125,152.2899932861328,152.3800048828125,579,0.0,0.0
2024-09-09 10:37:00-04:00,152.47000122070312,152.58999633789062,152.47000122070312,152.58999633789062,815,0.0,0.0
2024-09-09 10:38:00-04:00,152.5,152.5,152.5,152.5,844,0.0,0.0
2024-09-09 10:39:00-04:00,152.64999389648438,152.66000366210938,152.64999389648438,152.66000366210938,728,0.0,0.0
2024-09-09 10:44:00-04:00,152.65499877929688,152.65499877929688,152.5500030517578,152.5500030517578,671,0.0,0.0
2024-09-09 10:48:00-04:00,152.56500244140625,152.56500244140625,152.56500244140625,152.56500244140625,325,0.0,0.0
2024-09-09 10:52:00-04:00,152.50999450683594,152.50999450683594,152.50999450683594,152.50999450683594,137,0.0,0.0
2024-09-09 10:53:00-04:00,152.5050048828125,152.5050048828125,152.5050048828125,152.5050048828125,272,0.0,0.0
2024-09-09 10:55:00-04:00,152.60000610351562,152.61000061035156,152.60000610351562,152.61000061035156,1031,0.0,0.0
2024-09-09 10:58:00-04:00,152.61000061035156,152.6999969482422,152.61000061035156,152.63999938964844,1551,0.0,0.0
2024-09-09 10:59:00-04:00,152.64500427246094,152.64500427246094,152.64500427246094,152.64500427246094,302,0.0,0.0
2024-09-09 11:00:00-04:00,152.7100067138672,152.7100067138672,152.7100067138672,152.7100067138672,274,0.0,0.0
2024-09-09 11:02:00-04:00,152.55999755859375,152.55999755859375,152.55999755859375,152.55999755859375,123,0.0,0.0
2024-09-09 11:04:00-04:00,152.55999755859375,152.5749969482422,152.55999755859375,152.5749969482422,637,0.0,0.0
2024-09-09 11:05:00-04:00,152.32000732421875,152.3300018310547,152.32000732421875,152.3300018310547,694,0.0,0.0
2024-09-09 11:13:00-04:00,152.3300018310547,152.3300018310547,152.3300018310547,152.3300018310547,633,0.0,0.0
2024-09-09 11:15:00-04:00,152.27000427246094,152.27000427246094,152.27000427246094,152.27000427246094,528,0.0,0.0
2024-09-09 11:17:00-04:00,152.1649932861328,152.1649932861328,152.1649932861328,152.1649932861328,480,0.0,0.0
2024-09-09 11:18:00-04:00,152.22000122070312,152.22000122070312,152.15499877929688,152.1750030517578,663,0.0,0.0
2024-09-09 11:19:00-04:00,152.1750030517578,152.1750030517578,152.1750030517578,152.1750030517578,435,0.0,0.0
2024-09-09 11:20:00-04:00,152.25,152.25,152.22000122070312,152.22000122070312,1040,0.0,0.0
2024-09-09 11:22:00-04:00,152.27000427246094,152.2899932861328,152.27000427246094,152.2899932861328,769,0.0,0.0
2024-09-09 11:25:00-04:00,152.23500061035156,152.23500061035156,152.19500732421875,152.19500732421875,555,0.0,0.0
2024-09-09 11:27:00-04:00,152.19000244140625,152.19000244140625,152.19000244140625,152.19000244140625,752,0.0,0.0
2024-09-09 11:29:00-04:00,152.24000549316406,152.33999633789062,152.24000549316406,152.30499267578125,1524,0.0,0.0
2024-09-09 11:30:00-04:00,152.3699951171875,152.3699951171875,152.3179931640625,152.3179931640625,4551,0.0,0.0
2024-09-09 11:31:00-04:00,152.41000366210938,152.41000366210938,152.34500122070312,152.34500122070312,380,0.0,0.0
2024-09-09 11:32:00-04:00,152.34500122070312,152.35000610351562,152.1199951171875,152.27999877929688,5311,0.0,0.0
2024-09-09 11:34:00-04:00,152.34500122070312,152.34500122070312,152.14999389648438,152.14999389648438,3012,0.0,0.0
2024-09-09 11:37:00-04:00,152.21499633789062,152.21499633789062,152.17059326171875,152.17059326171875,635,0.0,0.0
2024-09-09 11:39:00-04:00,152.15499877929688,152.1649932861328,151.97000122070312,151.97000122070312,2310,0.0,0.0
2024-09-09 11:41:00-04:00,151.97000122070312,151.97000122070312,151.89500427246094,151.89500427246094,372,0.0,0.0
2024-09-09 11:42:00-04:00,151.8925018310547,151.8925018310547,151.8925018310547,151.8925018310547,632,0.0,0.0
2024-09-09 11:45:00-04:00,152.0500030517578,152.0500030517578,151.97500610351562,151.97500610351562,1010,0.0,0.0
2024-09-09 11:46:00-04:00,151.97500610351562,151.97500610351562,151.97500610351562,151.97500610351562,260,0.0,0.0
2024-09-09 11:47:00-04:00,152.0500030517578,152.0500030517578,152.0,152.0,1511,0.0,0.0
2024-09-09 11:53:00-04:00,151.97000122070312,151.97000122070312,151.97000122070312,151.97000122070312,151,0.0,0.0
2024-09-09 11:55:00-04:00,151.9199981689453,151.9199981689453,151.9199981689453,151.9199981689453,907,0.0,0.0
2024-09-09 11:57:00-04:00,151.9199981689453,151.9199981689453,151.9199981689453,151.9199981689453,183,0.0,0.0
2024-09-09 11:58:00-04:00,151.88999938964844,151.88999938964844,151.78500366210938,151.78500366210938,1342,0.0,0.0
2024-09-09 12:02:00-04:00,151.8800048828125,151.92999267578125,151.86500549316406,151.89999389648438,2532,0.0,0.0
2024-09-09 12:04:00-04:00,152.0399932861328,152.0500030517578,152.0399932861328,152.0500030517578,465,0.0,0.0
2024-09-09 12:05:00-04:00,152.02999877929688,152.02999877929688,152.02999877929688,152.02999877929688,306,0.0,0.0
2024-09-09 12:07:00-04:00,152.0500030517578,152.0500030517578,151.97999572753906,152.0,873,0.0,0.0
2024-09-09 12:12:00-04:00,152.08999633789062,152.08999633789062,152.08999633789062,152.08999633789062,792,0.0,0.0
2024-09-09 12:16:00-04:00,152.05999755859375,152.05999755859375,152.05999755859375,152.05999755859375,136,0.0,0.0
2024-09-09 12:17:00-04:00,152.0449981689453,152.0500030517578,152.0449981689453,152.0500030517578,510,0.0,0.0
2024-09-09 12:21:00-04:00,152.0500030517578,152.0500030517578,152.0500030517578,152.0500030517578,257,0.0,0.0
2024-09-09 12:22:00-04:00,152.05999755859375,152.05999755859375,152.0500030517578,152.0500030517578,1023,0.0,0.0
2024-09-09 12:23:00-04:00,151.93499755859375,151.93499755859375,151.90499877929688,151.90499877929688,584,0.0,0.0
2024-09-09 12:24:00-04:00,152.0,152.0,152.0,152.0,642,0.0,0.0
2024-09-09 12:28:00-04:00,151.9550018310547,151.9550018310547,151.9550018310547,151.9550018310547,194,0.0,0.0
2024-09-09 12:29:00-04:00,152.0399932861328,152.0500030517578,151.97999572753906,151.97999572753906,1220,0.0,0.0
2024-09-09 12:30:00-04:00,151.98500061035156,151.98500061035156,151.98500061035156,151.98500061035156,248,0.0,0.0
2024-09-09 12:32:00-04:00,152.05999755859375,152.05999755859375,152.05999755859375,152.05999755859375,453,0.0,0.0
2024-09-09 12:34:00-04:00,152.07839965820312,152.07839965820312,152.07839965820312,152.07839965820312,317,0.0,0.0
2024-09-09 12:37:00-04:00,151.9949951171875,152.10000610351562,151.9949951171875,152.08999633789062,2201,0.0,0.0
2024-09-09 12:38:00-04:00,152.13999938964844,152.13999938964844,152.125,152.125,611,0.0,0.0
2024-09-09 12:42:00-04:00,152.11000061035156,152.1999969482422,152.11000061035156,152.1999969482422,658,0.0,0.0
2024-09-09 12:43:00-04:00,152.1999969482422,152.1999969482422,152.1999969482422,152.1999969482422,655,0.0,0.0
2024-09-09 12:49:00-04:00,152.05999755859375,152.05999755859375,151.9499969482422,151.9499969482422,792,0.0,0.0
2024-09-09 12:51:00-04:00,152.01499938964844,152.01499938964844,152.01499938964844,152.01499938964844,377,0.0,0.0
2024-09-09 12:55:00-04:00,152.02000427246094,152.02000427246094,151.92999267578125,151.92999267578125,541,0.0,0.0
2024-09-09 12:57:00-04:00,152.02000427246094,152.02000427246094,152.02000427246094,152.02000427246094,499,0.0,0.0
2024-09-09 12:58:00-04:00,152.0500030517578,152.0500030517578,152.0500030517578,152.0500030517578,597,0.0,0.0
2024-09-09 12:59:00-04:00,152.03500366210938,152.03500366210938,152.03500366210938,152.03500366210938,493,0.0,0.0
2024-09-09 13:04:00-04:00,152.0449981689453,152.0449981689453,152.00999450683594,152.00999450683594,1043,0.0,0.0
2024-09-09 13:06:00-04:00,151.8000030517578,151.8000030517578,151.8000030517578,151.8000030517578,212,0.0,0.0
2024-09-09 13:08:00-04:00,151.89999389648438,151.89999389648438,151.89999389648438,151.89999389648438,640,0.0,0.0
2024-09-09 13:09:00-04:00,151.9550018310547,151.9550018310547,151.9550018310547,151.9550018310547,371,0.0,0.0
2024-09-09 13:12:00-04:00,151.88999938964844,151.94000244140625,151.88999938964844,151.94000244140625,457,0.0,0.0
2024-09-09 13:13:00-04:00,151.9600067138672,151.97999572753906,151.90499877929688,151.90499877929688,744,0.0,0.0
2024-09-09 13:14:00-04:00,151.92999267578125,151.92999267578125,151.92999267578125,151.92999267578125,176,0.0,0.0
2024-09-09 13:17:00-04:00,151.92999267578125,151.94000244140625,151.92999267578125,151.94000244140625,637,0.0,0.0
2024-09-09 13:23:00-04:00,151.89999389648438,151.89999389648438,151.89999389648438,151.89999389648438,226,0.0,0.0
2024-09-09 13:24:00-04:00,151.83999633789062,151.83999633789062,151.83999633789062,151.83999633789062,728,0.0,0.0
2024-09-09 13:25:00-04:00,151.74000549316406,151.7949981689453,151.74000549316406,151.7949981689453,1762,0.0,0.0
2024-09-09 13:27:00-04:00,151.8300018310547,151.8300018310547,151.8300018310547,151.8300018310547,100,0.0,0.0
2024-09-09 13:28:00-04:00,151.8300018310547,151.8300018310547,151.8300018310547,151.8300018310547,347,0.0,0.0
2024-09-09 13:29:00-04:00,151.8699951171875,151.8800048828125,151.8699951171875,151.8800048828125,1144,0.0,0.0
2024-09-09 13:38:00-04:00,151.86000061035156,151.86000061035156,151.86000061035156,151.86000061035156,204,0.0,0.0
2024-09-09 13:40:00-04:00,151.86000061035156,151.86000061035156,151.8000030517578,151.8000030517578,836,0.0,0.0
2024-09-09 13:42:00-04:00,151.77000427246094,151.77000427246094,151.57000732421875,151.6999969482422,1081,0.0,0.0
2024-09-09 13:43:00-04:00,151.77999877929688,151.77999877929688,151.77999877929688,151.77999877929688,252,0.0,0.0
2024-09-09 13:46:00-04:00,151.77000427246094,151.77000427246094,151.77000427246094,151.77000427246094,162,0.0,0.0
2024-09-09 13:47:00-04:00,151.6750030517578,151.6750030517578,151.6750030517578,151.6750030517578,295,0.0,0.0
2024-09-09 13:49:00-04:00,151.72999572753906,151.72999572753906,151.72999572753906,151.72999572753906,352,0.0,0.0
2024-09-09 13:53:00-04:00,151.5399932861328,151.5399932861328,151.5399932861328,151.5399932861328,174,0.0,0.0
2024-09-09 13:54:00-04:00,151.5500030517578,151.5500030517578,151.5500030517578,151.5500030517578,539,0.0,0.0
2024-09-09 13:55:00-04:00,151.5050048828125,151.55999755859375,151.5050048828125,151.55999755859375,657,0.0,0.0
2024-09-09 13:56:00-04:00,151.49000549316406,151.57000732421875,151.49000549316406,151.5500030517578,1754,0.0,0.0
2024-09-09 13:57:00-04:00,151.63999938964844,151.67999267578125,151.63999938964844,151.67999267578125,718,0.0,0.0
2024-09-09 13:58:00-04:00,151.6300048828125,151.6300048828125,151.6300048828125,151.6300048828125,219,0.0,0.0
2024-09-09 13:59:00-04:00,151.625,151.625,151.625,151.625,386,0.0,0.0
2024-09-09 14:01:00-04:00,151.625,151.625,151.625,151.625,161,0.0,0.0
2024-09-09 14:02:00-04:00,151.6699981689453,151.6699981689453,151.6699981689453,151.6699981689453,302,0.0,0.0
2024-09-09 14:03:00-04:00,151.625,151.625,151.625,151.625,2170,0.0,0.0
2024-09-09 14:05:00-04:00,151.652099609375,151.652099609375,151.652099609375,151.652099609375,1208,0.0,0.0
2024-09-09 14:10:00-04:00,151.43499755859375,151.61000061035156,151.43499755859375,151.61000061035156,1887,0.0,0.0
2024-09-09 14:11:00-04:00,151.67999267578125,151.67999267578125,151.67999267578125,151.67999267578125,116,0.0,0.0
2024-09-09 14:12:00-04:00,151.57000732421875,151.57000732421875,151.56500244140625,151.56500244140625,5643,0.0,0.0
2024-09-09 14:17:00-04:00,151.63999938964844,151.69000244140625,151.6199951171875,151.69000244140625,1032,0.0,0.0
2024-09-09 14:19:00-04:00,151.69000244140625,151.69000244140625,151.63999938964844,151.67999267578125,866,0.0,0.0
2024-09-09 14:22:00-04:00,151.75990295410156,151.75990295410156,151.75990295410156,151.75990295410156,454,0.0,0.0
2024-09-09 14:23:00-04:00,151.75999450683594,151.75999450683594,151.75999450683594,151.75999450683594,239,0.0,0.0
2024-09-09 14:25:00-04:00,151.77999877929688,151.77999877929688,151.77999877929688,151.77999877929688,156,0.0,0.0
2024-09-09 14:26:00-04:00,151.77999877929688,151.84500122070312,151.77999877929688,151.84500122070312,981,0.0,0.0
2024-09-09 14:27:00-04:00,151.91000366210938,151.91000366210938,151.8350067138672,151.8350067138672,1062,0.0,0.0
2024-09-09 14:28:00-04:00,151.77999877929688,151.8300018310547,151.77999877929688,151.8300018310547,477,0.0,0.0
2024-09-09 14:30:00-04:00,151.8300018310547,151.8300018310547,151.8300018310547,151.8300018310547,120,0.0,0.0
2024-09-09 14:31:00-04:00,151.77999877929688,151.77999877929688,151.77999877929688,151.77999877929688,219,0.0,0.0
2024-09-09 14:32:00-04:00,151.77999877929688,151.77999877929688,151.7100067138672,151.7100067138672,654,0.0,0.0
2024-09-09 14:34:00-04:00,151.68499755859375,151.74000549316406,151.68499755859375,151.68499755859375,372,0.0,0.0
2024-09-09 14:36:00-04:00,151.61000061035156,151.61000061035156,151.61000061035156,151.61000061035156,309,0.0,0.0
2024-09-09 14:38:00-04:00,151.69000244140625,151.69000244140625,151.69000244140625,151.69000244140625,355,0.0,0.0
2024-09-09 14:39:00-04:00,151.60000610351562,151.6300048828125,151.60000610351562,151.6300048828125,741,0.0,0.0
2024-09-09 14:40:00-04:00,151.53500366210938,151.5399932861328,151.53500366210938,151.5399932861328,226,0.0,0.0
2024-09-09 14:42:00-04:00,151.5435028076172,151.67999267578125,151.5435028076172,151.64500427246094,1450,0.0,0.0
2024-09-09 14:45:00-04:00,151.74000549316406,151.75999450683594,151.74000549316406,151.75999450683594,353,0.0,0.0
2024-09-09 14:46:00-04:00,151.7100067138672,151.7100067138672,151.7100067138672,151.7100067138672,913,0.0,0.0
2024-09-09 14:50:00-04:00,151.72999572753906,151.72999572753906,151.72999572753906,151.72999572753906,216,0.0,0.0
2024-09-09 14:52:00-04:00,151.72999572753906,151.72999572753906,151.72999572753906,151.72999572753906,796,0.0,0.0
2024-09-09 14:55:00-04:00,151.72000122070312,151.72000122070312,151.67999267578125,151.67999267578125,832,0.0,0.0
2024-09-09 14:57:00-04:00,151.69000244140625,151.69000244140625,151.69000244140625,151.69000244140625,446,0.0,0.0
2024-09-09 14:58:00-04:00,151.69000244140625,151.69000244140625,151.66000366210938,151.66000366210938,229,0.0,0.0
2024-09-09 14:59:00-04:00,151.66000366210938,151.66000366210938,151.66000366210938,151.66000366210938,411,0.0,0.0
2024-09-09 15:00:00-04:00,151.61000061035156,151.6699981689453,151.61000061035156,151.66000366210938,564,0.0,0.0
2024-09-09 15:01:00-04:00,151.60000610351562,151.60000610351562,151.55499267578125,151.55499267578125,367,0.0,0.0
2024-09-09 15:02:00-04:00,151.6300048828125,151.63999938964844,151.59500122070312,151.59500122070312,1279,0.0,0.0
2024-09-09 15:04:00-04:00,151.6699981689453,151.6999969482422,151.6699981689453,151.6999969482422,1388,0.0,0.0
2024-09-09 15:05:00-04:00,151.72000122070312,151.72000122070312,151.67999267578125,151.67999267578125,1468,0.0,0.0
2024-09-09 15:06:00-04:00,151.7899932861328,151.7899932861328,151.7899932861328,151.7899932861328,193,0.0,0.0
2024-09-09 15:07:00-04:00,151.74000549316406,151.7899932861328,151.74000549316406,151.7899932861328,1134,0.0,0.0
2024-09-09 15:10:00-04:00,151.77999877929688,151.77999877929688,151.77999877929688,151.77999877929688,130,0.0,0.0
2024-09-09 15:11:00-04:00,151.72500610351562,151.72500610351562,151.72500610351562,151.72500610351562,332,0.0,0.0
2024-09-09 15:12:00-04:00,151.63999938964844,151.63999938964844,151.63999938964844,151.63999938964844,206,0.0,0.0
2024-09-09 15:14:00-04:00,151.75,151.75,151.75,151.75,190,0.0,0.0
2024-09-09 15:16:00-04:00,151.69500732421875,151.69500732421875,151.68499755859375,151.68499755859375,413,0.0,0.0
2024-09-09 15:17:00-04:00,151.75999450683594,151.75999450683594,151.75999450683594,151.75999450683594,275,0.0,0.0
2024-09-09 15:20:00-04:00,151.6649932861328,151.6649932861328,151.6649932861328,151.6649932861328,229,0.0,0.0
2024-09-09 15:21:00-04:00,151.61000061035156,151.63999938964844,151.60499572753906,151.60499572753906,1800,0.0,0.0
2024-09-09 15:28:00-04:00,151.63999938964844,151.63999938964844,151.63999938964844,151.63999938964844,332,0.0,0.0
2024-09-09 15:29:00-04:00,151.6999969482422,151.72999572753906,151.63499450683594,151.72999572753906,1419,0.0,0.0
2024-09-09 15:31:00-04:00,151.72999572753906,151.72999572753906,151.72999572753906,151.72999572753906,324,0.0,0.0
2024-09-09 15:32:00-04:00,151.70899963378906,151.72999572753906,151.6699981689453,151.6699981689453,1418,0.0,0.0
2024-09-09 15:34:00-04:00,151.5800018310547,151.64999389648438,151.5800018310547,151.64999389648438,331,0.0,0.0
2024-09-09 15:35:00-04:00,151.70669555664062,151.70669555664062,151.597900390625,151.63499450683594,512,0.0,0.0
2024-09-09 15:36:00-04:00,151.7100067138672,151.7100067138672,151.7100067138672,151.7100067138672,333,0.0,0.0
2024-09-09 15:37:00-04:00,151.6199951171875,151.6199951171875,151.6199951171875,151.6199951171875,431,0.0,0.0
2024-09-09 15:38:00-04:00,151.66000366210938,151.66000366210938,151.66000366210938,151.66000366210938,309,0.0,0.0
2024-09-09 15:39:00-04:00,151.6699981689453,151.6699981689453,151.6699981689453,151.6699981689453,235,0.0,0.0
2024-09-09 15:40:00-04:00,151.61500549316406,151.61500549316406,151.61500549316406,151.61500549316406,343,0.0,0.0
2024-09-09 15:41:00-04:00,151.69000244140625,151.69000244140625,151.69000244140625,151.69000244140625,353,0.0,0.0
2024-09-09 15:43:00-04:00,151.69000244140625,151.69000244140625,151.64999389648438,151.64999389648438,895,0.0,0.0
2024-09-09 15:45:00-04:00,151.6490020751953,151.6490020751953,151.5399932861328,151.58999633789062,1746,0.0,0.0
2024-09-09 15:46:00-04:00,151.58999633789062,151.58999633789062,151.5449981689453,151.5449981689453,946,0.0,0.0
2024-09-09 15:47:00-04:00,151.49000549316406,151.49000549316406,151.49000549316406,151.49000549316406,399,0.0,0.0
2024-09-09 15:48:00-04:00,151.5500030517578,151.55999755859375,151.5500030517578,151.55999755859375,1098,0.0,0.0
2024-09-09 15:50:00-04:00,151.61000061035156,151.6300048828125,151.52000427246094,151.52000427246094,3143,0.0,0.0
2024-09-09 15:52:00-04:00,151.4499969482422,151.5500030517578,151.44000244140625,151.5500030517578,1626,0.0,0.0
2024-09-09 15:53:00-04:00,151.58999633789062,151.58999633789062,151.5500030517578,151.5500030517578,929,0.0,0.0
2024-09-09 15:54:00-04:00,151.5500030517578,151.5800018310547,151.52999877929688,151.52999877929688,1606,0.0,0.0
2024-09-09 15:55:00-04:00,151.56500244140625,151.63999938964844,151.56500244140625,151.63999938964844,2881,0.0,0.0
2024-09-09 15:56:00-04:00,151.6699981689453,151.6699981689453,151.6199951171875,151.6199951171875,1626,0.0,0.0
2024-09-09 15:57:00-04:00,151.6699981689453,151.82000732421875,151.6699981689453,151.77000427246094,4741,0.0,0.0
2024-09-09 15:58:00-04:00,151.8000030517578,151.97000122070312,151.7899932861328,151.89999389648438,6885,0.0,0.0
2024-09-09 15:59:00-04:00,151.94000244140625,152.0399932861328,151.86000061035156,151.9600067138672,12705,0.0,0.0
2024-09-10 09:30:00-04:00,151.8699951171875,151.8699951171875,151.8699951171875,151.8699951171875,1721,0.0,0.0
2024-09-10 09:32:00-04:00,151.8699951171875,151.8699951171875,151.8699951171875,151.8699951171875,374,0.0,0.0
2024-09-10 09:38:00-04:00,151.5800018310547,151.5800018310547,151.5800018310547,151.5800018310547,273,0.0,0.0
2024-09-10 09:40:00-04:00,151.89999389648438,151.89999389648438,151.86500549316406,151.86500549316406,1199,0.0,0.0
2024-09-10 09:49:00-04:00,152.1999969482422,152.1999969482422,152.1999969482422,152.1999969482422,314,0.0,0.0
2024-09-10 09:50:00-04:00,152.30999755859375,152.30999755859375,152.30999755859375,152.30999755859375,1116,0.0,0.0
2024-09-10 09:55:00-04:00,152.28500366210938,152.28500366210938,152.28500366210938,152.28500366210938,102,0.0,0.0
2024-09-10 09:57:00-04:00,152.28500366210938,152.28500366210938,152.28500366210938,152.28500366210938,489,0.0,0.0
2024-09-10 10:00:00-04:00,152.27999877929688,152.27999877929688,152.27999877929688,152.27999877929688,161,0.0,0.0
2024-09-10 10:02:00-04:00,152.0800018310547,152.0800018310547,151.86500549316406,152.02999877929688,4109,0.0,0.0
2024-09-10 10:05:00-04:00,152.02999877929688,152.02999877929688,152.02999877929688,152.02999877929688,783,0.0,0.0
2024-09-10 10:06:00-04:00,152.02000427246094,152.02000427246094,152.02000427246094,152.02000427246094,395,0.0,0.0
2024-09-10 10:07:00-04:00,151.9499969482422,152.05999755859375,151.94000244140625,151.94000244140625,720,0.0,0.0
2024-09-10 10:08:00-04:00,151.9600067138672,151.9600067138672,151.9600067138672,151.9600067138672,110,0.0,0.0
2024-09-10 10:09:00-04:00,152.11000061035156,152.1199951171875,151.9250030517578,151.9250030517578,1379,0.0,0.0
2024-09-10 10:10:00-04:00,151.93499755859375,151.93499755859375,151.93499755859375,151.93499755859375,1936,0.0,0.0
2024-09-10 10:17:00-04:00,151.89999389648438,151.99000549316406,151.89999389648438,151.9499969482422,839,0.0,0.0
2024-09-10 10:18:00-04:00,151.9600067138672,152.02499389648438,151.91000366210938,151.91000366210938,1563,0.0,0.0
2024-09-10 10:23:00-04:00,152.0749969482422,152.0749969482422,152.07000732421875,152.07000732421875,552,0.0,0.0
2024-09-10 10:27:00-04:00,152.10499572753906,152.10499572753906,152.10000610351562,152.10000610351562,575,0.0,0.0
2024-09-10 10:31:00-04:00,152.0749969482422,152.0749969482422,152.0749969482422,152.0749969482422,709,0.0,0.0
2024-09-10 10:35:00-04:00,152.0850067138672,152.0850067138672,152.0850067138672,152.0850067138672,207,0.0,0.0
2024-09-10 10:38:00-04:00,152.08999633789062,152.08999633789062,152.08999633789062,152.08999633789062,109,0.0,0.0
2024-09-10 10:39:00-04:00,152.08999633789062,152.25,152.08999633789062,152.22000122070312,664,0.0,0.0
2024-09-10 10:41:00-04:00,152.13999938964844,152.15980529785156,152.13999938964844,152.15980529785156,660,0.0,0.0
2024-09-10 10:43:00-04:00,152.1999969482422,152.1999969482422,152.1999969482422,152.1999969482422,584,0.0,0.0
2024-09-10 10:47:00-04:00,152.3000030517578,152.33999633789062,152.25999450683594,152.25999450683594,446,0.0,0.0
2024-09-10 10:48:00-04:00,152.24000549316406,152.3699951171875,152.24000549316406,152.3699951171875,534,0.0,0.0
2024-09-10 10:51:00-04:00,152.39999389648438,152.39999389648438,152.39999389648438,152.39999389648438,368,0.0,0.0
2024-09-10 10:52:00-04:00,152.40499877929688,152.40499877929688,152.40499877929688,152.40499877929688,332,0.0,0.0
2024-09-10 10:53:00-04:00,152.39999389648438,152.5,152.26499938964844,152.44500732421875,3785,0.0,0.0
2024-09-10 10:58:00-04:00,152.55499267578125,152.55499267578125,152.55499267578125,152.55499267578125,252,0.0,0.0
2024-09-10 10:59:00-04:00,152.5399932861328,152.5399932861328,152.5,152.5,455,0.0,0.0
2024-09-10 11:03:00-04:00,152.5500030517578,152.55999755859375,152.53500366210938,152.53500366210938,2824,0.0,0.0
2024-09-10 11:07:00-04:00,152.49000549316406,152.5399932861328,152.47000122070312,152.5399932861328,991,0.0,0.0
2024-09-10 11:08:00-04:00,152.47999572753906,152.47999572753906,152.47999572753906,152.47999572753906,146,0.0,0.0
2024-09-10 11:09:00-04:00,152.60000610351562,152.67999267578125,152.58999633789062,152.67999267578125,1073,0.0,0.0
2024-09-10 11:10:00-04:00,152.77000427246094,152.7899932861328,152.69000244140625,152.69000244140625,979,0.0,0.0
2024-09-10 11:12:00-04:00,152.6199951171875,152.6199951171875,152.58999633789062,152.58999633789062,1448,0.0,0.0
2024-09-10 11:18:00-04:00,152.4199981689453,152.49000549316406,152.4199981689453,152.47999572753906,797,0.0,0.0
2024-09-10 11:22:00-04:00,152.47999572753906,152.47999572753906,152.47999572753906,152.47999572753906,417,0.0,0.0
2024-09-10 11:25:00-04:00,152.4250030517578,152.4250030517578,152.4250030517578,152.4250030517578,204,0.0,0.0
2024-09-10 11:26:00-04:00,152.52999877929688,152.5399932861328,152.4250030517578,152.4250030517578,1071,0.0,0.0
2024-09-10 11:31:00-04:00,152.42999267578125,152.42999267578125,152.30999755859375,152.30999755859375,756,0.0,0.0
2024-09-10 11:36:00-04:00,152.32000732421875,152.32000732421875,152.30999755859375,152.30999755859375,824,0.0,0.0
2024-09-10 11:41:00-04:00,152.32000732421875,152.32000732421875,152.30999755859375,152.30999755859375,768,0.0,0.0
2024-09-10 11:46:00-04:00,152.27999877929688,152.27999877929688,152.27999877929688,152.27999877929688,1988,0.0,0.0
2024-09-10 11:59:00-04:00,151.93499755859375,151.93499755859375,151.93499755859375,151.93499755859375,162,0.0,0.0
2024-09-10 12:00:00-04:00,151.77000427246094,151.77000427246094,151.77000427246094,151.77000427246094,305,0.0,0.0
2024-09-10 12:05:00-04:00,151.8300018310547,151.8300018310547,151.8300018310547,151.8300018310547,360,0.0,0.0
2024-09-10 12:11:00-04:00,151.71499633789062,151.72000122070312,151.71499633789062,151.72000122070312,771,0.0,0.0
2024-09-10 12:15:00-04:00,151.69000244140625,151.69000244140625,151.69000244140625,151.69000244140625,571,0.0,0.0
2024-09-10 12:20:00-04:00,151.67999267578125,151.67999267578125,151.67999267578125,151.67999267578125,159,0.0,0.0
2024-09-10 12:22:00-04:00,151.67999267578125,151.6999969482422,151.66000366210938,151.6999969482422,1107,0.0,0.0
2024-09-10 12:23:00-04:00,151.74000549316406,151.8300018310547,151.73500061035156,151.8300018310547,519,0.0,0.0
2024-09-10 12:24:00-04:00,151.6999969482422,151.84500122070312,151.6999969482422,151.84500122070312,259,0.0,0.0
2024-09-10 12:25:00-04:00,151.8300018310547,151.83999633789062,151.7050018310547,151.83999633789062,839,0.0,0.0
2024-09-10 12:27:00-04:00,151.7899932861328,151.7899932861328,151.7899932861328,151.7899932861328,1298,0.0,0.0
2024-09-10 12:33:00-04:00,151.83999633789062,151.86000061035156,151.8300018310547,151.86000061035156,1002,0.0,0.0
2024-09-10 12:37:00-04:00,151.97000122070312,151.97000122070312,151.84500122070312,151.86000061035156,551,0.0,0.0
2024-09-10 12:39:00-04:00,151.8350067138672,151.8350067138672,151.8350067138672,151.8350067138672,564,0.0,0.0
2024-09-10 12:52:00-04:00,151.8800048828125,151.8800048828125,151.8800048828125,151.8800048828125,635,0.0,0.0
2024-09-10 12:55:00-04:00,151.99000549316406,151.99000549316406,151.99000549316406,151.99000549316406,448,0.0,0.0
2024-09-10 12:59:00-04:00,151.99000549316406,151.99000549316406,151.99000549316406,151.99000549316406,388,0.0,0.0
2024-09-10 13:06:00-04:00,151.97000122070312,151.97000122070312,151.97000122070312,151.97000122070312,473,0.0,0.0
2024-09-10 13:12:00-04:00,152.0500030517578,152.0500030517578,152.03500366210938,152.03500366210938,352,0.0,0.0
2024-09-10 13:13:00-04:00,152.03500366210938,152.03500366210938,152.03500366210938,152.03500366210938,897,0.0,0.0
2024-09-10 13:20:00-04:00,151.97000122070312,151.97000122070312,151.97000122070312,151.97000122070312,111,0.0,0.0
2024-09-10 13:21:00-04:00,152.13999938964844,152.13999938964844,152.13999938964844,152.13999938964844,395,0.0,0.0
2024-09-10 13:27:00-04:00,152.10000610351562,152.10000610351562,152.10000610351562,152.10000610351562,778,0.0,0.0
2024-09-10 13:34:00-04:00,152.11000061035156,152.11000061035156,152.11000061035156,152.11000061035156,198,0.0,0.0
2024-09-10 13:36:00-04:00,152.05999755859375,152.05999755859375,152.05999755859375,152.05999755859375,440,0.0,0.0
2024-09-10 13:38:00-04:00,152.0449981689453,152.1199951171875,152.0449981689453,152.1199951171875,478,0.0,0.0
2024-09-10 13:41:00-04:00,152.1300048828125,152.2050018310547,152.1300048828125,152.2050018310547,816,0.0,0.0
2024-09-10 13:43:00-04:00,152.11000061035156,152.11000061035156,152.11000061035156,152.11000061035156,476,0.0,0.0
2024-09-10 13:44:00-04:00,152.18499755859375,152.18499755859375,152.18499755859375,152.18499755859375,1017,0.0,0.0
2024-09-10 13:57:00-04:00,151.85000610351562,151.9199981689453,151.8300018310547,151.9199981689453,1083,0.0,0.0
2024-09-10 14:02:00-04:00,152.02999877929688,152.02999877929688,152.02999877929688,152.02999877929688,270,0.0,0.0
2024-09-10 14:04:00-04:00,152.02999877929688,152.02999877929688,152.02999877929688,152.02999877929688,263,0.0,0.0
2024-09-10 14:08:00-04:00,152.02000427246094,152.02000427246094,152.02000427246094,152.02000427246094,586,0.0,0.0
2024-09-10 14:13:00-04:00,151.92999267578125,151.92999267578125,151.92999267578125,151.92999267578125,1054,0.0,0.0
2024-09-10 14:24:00-04:00,152.00999450683594,152.05999755859375,152.00999450683594,152.05999755859375,1630,0.0,0.0
2024-09-10 14:31:00-04:00,152.08999633789062,152.13999938964844,152.08999633789062,152.13999938964844,873,0.0,0.0
2024-09-10 14:32:00-04:00,152.13999938964844,152.13999938964844,152.13999938964844,152.13999938964844,394,0.0,0.0
2024-09-10 14:36:00-04:00,152.0800018310547,152.1024932861328,152.0800018310547,152.1024932861328,875,0.0,0.0
2024-09-10 14:41:00-04:00,152.0399932861328,152.0399932861328,152.02999877929688,152.02999877929688,533,0.0,0.0
2024-09-10 14:42:00-04:00,151.9600067138672,151.9600067138672,151.9600067138672,151.9600067138672,532,0.0,0.0
2024-09-10 14:48:00-04:00,151.9600067138672,151.9600067138672,151.9600067138672,151.9600067138672,195,0.0,0.0
2024-09-10 14:49:00-04:00,152.00999450683594,152.00999450683594,152.00999450683594,152.00999450683594,120,0.0,0.0
2024-09-10 14:50:00-04:00,152.00999450683594,152.00999450683594,152.00999450683594,152.00999450683594,2243,0.0,0.0
2024-09-10 14:56:00-04:00,152.07000732421875,152.07000732421875,152.07000732421875,152.07000732421875,845,0.0,0.0
2024-09-10 14:57:00-04:00,152.00999450683594,152.00999450683594,151.99000549316406,151.99000549316406,970,0.0,0.0
2024-09-10 14:59:00-04:00,152.01499938964844,152.01499938964844,152.01499938964844,152.01499938964844,344,0.0,0.0
2024-09-10 15:01:00-04:00,151.9600067138672,151.9600067138672,151.93499755859375,151.93499755859375,900,0.0,0.0
2024-09-10 15:06:00-04:00,151.89999389648438,151.89999389648438,151.89999389648438,151.89999389648438,246,0.0,0.0
2024-09-10 15:07:00-04:00,151.88999938964844,151.9250030517578,151.88999938964844,151.9250030517578,683,0.0,0.0
2024-09-10 15:12:00-04:00,151.9199981689453,151.9199981689453,151.9199981689453,151.9199981689453,781,0.0,0.0
2024-09-10 15:16:00-04:00,151.91000366210938,151.91000366210938,151.91000366210938,151.91000366210938,626,0.0,0.0
2024-09-10 15:17:00-04:00,151.9600067138672,151.9600067138672,151.92999267578125,151.92999267578125,479,0.0,0.0
2024-09-10 15:18:00-04:00,151.94000244140625,152.0,151.9250030517578,152.0,1664,0.0,0.0
2024-09-10 15:21:00-04:00,152.0,152.0,152.0,152.0,772,0.0,0.0
2024-09-10 15:23:00-04:00,152.00999450683594,152.02999877929688,152.00999450683594,152.02999877929688,891,0.0,0.0
2024-09-10 15:29:00-04:00,151.97999572753906,152.0,151.97999572753906,152.0,736,0.0,0.0
2024-09-10 15:30:00-04:00,151.97000122070312,151.97000122070312,151.9499969482422,151.97000122070312,966,0.0,0.0
2024-09-10 15:31:00-04:00,151.92999267578125,151.92999267578125,151.7899932861328,151.7899932861328,963,0.0,0.0
2024-09-10 15:32:00-04:00,151.75999450683594,151.8000030517578,151.75999450683594,151.77999877929688,1325,0.0,0.0
2024-09-10 15:33:00-04:00,151.75,151.7550048828125,151.6999969482422,151.6999969482422,658,0.0,0.0
2024-09-10 15:34:00-04:00,151.67999267578125,151.67999267578125,151.6699981689453,151.6699981689453,879,0.0,0.0
2024-09-10 15:36:00-04:00,151.64999389648438,151.67999267578125,151.64999389648438,151.67999267578125,1392,0.0,0.0
2024-09-10 15:40:00-04:00,151.64500427246094,151.64500427246094,151.64500427246094,151.64500427246094,353,0.0,0.0
2024-09-10 15:43:00-04:00,151.63999938964844,151.66000366210938,151.625,151.625,1468,0.0,0.0
2024-09-10 15:44:00-04:00,151.61500549316406,151.61500549316406,151.61500549316406,151.61500549316406,263,0.0,0.0
2024-09-10 15:45:00-04:00,151.63999938964844,151.6999969482422,151.63999938964844,151.6999969482422,2152,0.0,0.0
2024-09-10 15:46:00-04:00,151.72000122070312,151.8000030517578,151.6699981689453,151.6699981689453,2769,0.0,0.0
2024-09-10 15:47:00-04:00,151.74000549316406,151.74000549316406,151.74000549316406,151.74000549316406,1106,0.0,0.0
2024-09-10 15:48:00-04:00,151.6999969482422,151.6999969482422,151.66000366210938,151.69000244140625,1042,0.0,0.0
2024-09-10 15:49:00-04:00,151.66000366210938,151.66000366210938,151.64999389648438,151.64999389648438,497,0.0,0.0
2024-09-10 15:50:00-04:00,151.6300048828125,151.6300048828125,151.52999877929688,151.52999877929688,2462,0.0,0.0
2024-09-10 15:51:00-04:00,151.5500030517578,151.60000610351562,151.5399932861328,151.55999755859375,1944,0.0,0.0
2024-09-10 15:52:00-04:00,151.55999755859375,151.60000610351562,151.55999755859375,151.60000610351562,1129,0.0,0.0
2024-09-10 15:54:00-04:00,151.80999755859375,151.83999633789062,151.80999755859375,151.82000732421875,5493,0.0,0.0
2024-09-10 15:55:00-04:00,151.8249969482422,151.8249969482422,151.6300048828125,151.6300048828125,4222,0.0,0.0
2024-09-10 15:56:00-04:00,151.6649932861328,151.7100067138672,151.6199951171875,151.66000366210938,1724,0.0,0.0
2024-09-10 15:57:00-04:00,151.66000366210938,151.66000366210938,151.55499267578125,151.55499267578125,4308,0.0,0.0
2024-09-10 15:58:00-04:00,151.57000732421875,151.6199951171875,151.5500030517578,151.61500549316406,1813,0.0,0.0
2024-09-10 15:59:00-04:00,151.58999633789062,151.58999633789062,151.44000244140625,151.4499969482422,7836,0.0,0.0
2024-09-11 09:30:00-04:00,150.7899932861328,150.7899932861328,150.05999755859375,150.05999755859375,6175,0.0,0.0
2024-09-11 09:34:00-04:00,150.47500610351562,150.47500610351562,150.47500610351562,150.47500610351562,121,0.0,0.0
2024-09-11 09:35:00-04:00,150.4199981689453,150.4199981689453,150.4199981689453,150.4199981689453,206,0.0,0.0
2024-09-11 09:38:00-04:00,150.02999877929688,150.2100067138672,149.93499755859375,150.2100067138672,1041,0.0,0.0
2024-09-11 09:44:00-04:00,149.75,149.7949981689453,149.75,149.7949981689453,325,0.0,0.0
2024-09-11 09:45:00-04:00,149.97000122070312,150.05999755859375,149.97000122070312,150.05999755859375,893,0.0,0.0
2024-09-11 09:48:00-04:00,149.97000122070312,149.97000122070312,149.97000122070312,149.97000122070312,200,0.0,0.0
2024-09-11 09:49:00-04:00,149.6699981689453,150.05999755859375,149.6699981689453,150.05999755859375,814,0.0,0.0
2024-09-11 09:55:00-04:00,149.57000732421875,149.57000732421875,149.57000732421875,149.57000732421875,392,0.0,0.0
2024-09-11 09:57:00-04:00,149.64999389648438,149.77999877929688,149.64999389648438,149.77999877929688,342,0.0,0.0
2024-09-11 09:59:00-04:00,149.75,149.75,149.75,149.75,192,0.0,0.0
2024-09-11 10:00:00-04:00,149.69000244140625,149.69000244140625,149.69000244140625,149.69000244140625,1902,0.0,0.0
2024-09-11 10:01:00-04:00,149.5,149.5,149.5,149.5,662,0.0,0.0
2024-09-11 10:02:00-04:00,149.6699981689453,149.6699981689453,149.6699981689453,149.6699981689453,836,0.0,0.0
2024-09-11 10:03:00-04:00,149.32000732421875,149.48500061035156,149.2899932861328,149.48500061035156,1184,0.0,0.0
2024-09-11 10:04:00-04:00,149.66000366210938,149.66000366210938,149.66000366210938,149.66000366210938,143,0.0,0.0
2024-09-11 10:05:00-04:00,149.46499633789062,149.46499633789062,149.27999877929688,149.35000610351562,1878,0.0,0.0
2024-09-11 10:09:00-04:00,149.5500030517578,149.72000122070312,149.39999389648438,149.47000122070312,1567,0.0,0.0
2024-09-11 10:10:00-04:00,149.4199981689453,149.4199981689453,149.36000061035156,149.36000061035156,259,0.0,0.0
2024-09-11 10:11:00-04:00,149.2449951171875,149.2449951171875,149.2449951171875,149.2449951171875,241,0.0,0.0
2024-09-11 10:12:00-04:00,149.24000549316406,149.44000244140625,149.24000549316406,149.42999267578125,496,0.0,0.0
2024-09-11 10:13:00-04:00,149.23500061035156,149.5500030517578,149.23500061035156,149.5500030517578,1384,0.0,0.0
2024-09-11 10:14:00-04:00,149.5500030517578,149.5500030517578,149.3699951171875,149.4600067138672,1475,0.0,0.0
2024-09-11 10:16:00-04:00,149.4600067138672,149.4600067138672,149.4600067138672,149.4600067138672,101,0.0,0.0
2024-09-11 10:17:00-04:00,149.3300018310547,149.3300018310547,149.27999877929688,149.27999877929688,410,0.0,0.0
2024-09-11 10:18:00-04:00,149.0,149.0,149.0,149.0,248,0.0,0.0
2024-09-11 10:19:00-04:00,148.90499877929688,148.90499877929688,148.90499877929688,148.90499877929688,122,0.0,0.0
2024-09-11 10:20:00-04:00,148.77000427246094,148.77000427246094,148.6300048828125,148.6300048828125,582,0.0,0.0
2024-09-11 10:21:00-04:00,148.7449951171875,148.7449951171875,148.7449951171875,148.7449951171875,360,0.0,0.0
2024-09-11 10:24:00-04:00,148.78500366210938,148.78500366210938,148.78500366210938,148.78500366210938,230,0.0,0.0
2024-09-11 10:26:00-04:00,148.7100067138672,148.81500244140625,148.7100067138672,148.81500244140625,231,0.0,0.0
2024-09-11 10:27:00-04:00,148.80999755859375,148.80999755859375,148.80999755859375,148.80999755859375,143,0.0,0.0
2024-09-11 10:28:00-04:00,148.7899932861328,148.80999755859375,148.7899932861328,148.80999755859375,853,0.0,0.0
2024-09-11 10:31:00-04:00,148.8300018310547,148.8300018310547,148.8300018310547,148.8300018310547,903,0.0,0.0
2024-09-11 10:33:00-04:00,148.82000732421875,148.90499877929688,148.82000732421875,148.89999389648438,487,0.0,0.0
2024-09-11 10:35:00-04:00,148.97999572753906,148.97999572753906,148.97999572753906,148.97999572753906,742,0.0,0.0
2024-09-11 10:37:00-04:00,149.1374969482422,149.1374969482422,149.0,149.0,528,0.0,0.0
2024-09-11 10:39:00-04:00,149.14999389648438,149.14999389648438,149.14999389648438,149.14999389648438,496,0.0,0.0
2024-09-11 10:45:00-04:00,149.09500122070312,149.09500122070312,149.09500122070312,149.09500122070312,315,0.0,0.0
2024-09-11 10:47:00-04:00,149.08999633789062,149.08999633789062,149.08999633789062,149.08999633789062,223,0.0,0.0
2024-09-11 10:48:00-04:00,149.11500549316406,149.11500549316406,149.11500549316406,149.11500549316406,232,0.0,0.0
2024-09-11 10:50:00-04:00,149.22000122070312,149.22000122070312,149.22000122070312,149.22000122070312,891,0.0,0.0
2024-09-11 10:59:00-04:00,149.3800048828125,149.3800048828125,149.3800048828125,149.3800048828125,310,0.0,0.0
2024-09-11 11:01:00-04:00,149.38999938964844,149.38999938964844,149.38999938964844,149.38999938964844,435,0.0,0.0
2024-09-11 11:02:00-04:00,149.4250030517578,149.5800018310547,149.4250030517578,149.5800018310547,769,0.0,0.0
2024-09-11 11:07:00-04:00,149.5800018310547,149.5800018310547,149.5800018310547,149.5800018310547,335,0.0,0.0
2024-09-11 11:11:00-04:00,149.50999450683594,149.66000366210938,149.50999450683594,149.66000366210938,1359,0.0,0.0
2024-09-11 11:12:00-04:00,149.75,149.75,149.75,149.75,156,0.0,0.0
2024-09-11 11:13:00-04:00,149.6649932861328,149.6649932861328,149.6649932861328,149.6649932861328,1632,0.0,0.0
2024-09-11 11:14:00-04:00,149.58999633789062,149.63999938964844,149.10000610351562,149.35000610351562,10226,0.0,0.0
2024-09-11 11:16:00-04:00,149.1199951171875,149.1199951171875,149.1199951171875,149.1199951171875,465,0.0,0.0
2024-09-11 11:20:00-04:00,149.1300048828125,149.1300048828125,149.1300048828125,149.1300048828125,237,0.0,0.0
2024-09-11 11:23:00-04:00,149.3699951171875,149.3699951171875,149.3699951171875,149.3699951171875,295,0.0,0.0
2024-09-11 11:24:00-04:00,149.2449951171875,149.2449951171875,149.2449951171875,149.2449951171875,118,0.0,0.0
2024-09-11 11:25:00-04:00,149.24000549316406,149.24000549316406,149.24000549316406,149.24000549316406,109,0.0,0.0
2024-09-11 11:26:00-04:00,149.24000549316406,149.24000549316406,149.24000549316406,149.24000549316406,397,0.0,0.0
2024-09-11 11:27:00-04:00,149.24000549316406,149.24000549316406,149.24000549316406,149.24000549316406,579,0.0,0.0
2024-09-11 11:28:00-04:00,149.3699951171875,149.3699951171875,149.30999755859375,149.30999755859375,596,0.0,0.0
2024-09-11 11:32:00-04:00,149.3350067138672,149.33999633789062,149.3350067138672,149.3350067138672,650,0.0,0.0
2024-09-11 11:33:00-04:00,149.3350067138672,149.3350067138672,149.3350067138672,149.3350067138672,387,0.0,0.0
2024-09-11 11:37:00-04:00,149.32000732421875,149.32000732421875,149.32000732421875,149.32000732421875,404,0.0,0.0
2024-09-11 11:38:00-04:00,149.33999633789062,149.5,149.30499267578125,149.5,5088,0.0,0.0
2024-09-11 11:39:00-04:00,149.6199951171875,149.77000427246094,149.53500366210938,149.58999633789062,1869,0.0,0.0
2024-09-11 11:40:00-04:00,149.58999633789062,149.58999633789062,149.58999633789062,149.58999633789062,200,0.0,0.0
2024-09-11 11:41:00-04:00,149.57000732421875,149.57000732421875,149.57000732421875,149.57000732421875,1479,0.0,0.0
2024-09-11 11:42:00-04:00,149.7100067138672,149.7100067138672,149.7100067138672,149.7100067138672,322,0.0,0.0
2024-09-11 11:43:00-04:00,149.74000549316406,149.8300018310547,149.7100067138672,149.74000549316406,982,0.0,0.0
2024-09-11 11:45:00-04:00,149.7550048828125,149.7550048828125,149.7550048828125,149.7550048828125,369,0.0,0.0
2024-09-11 11:46:00-04:00,149.80999755859375,149.80999755859375,149.80999755859375,149.80999755859375,641,0.0,0.0
2024-09-11 11:53:00-04:00,149.68499755859375,149.68499755859375,149.68499755859375,149.68499755859375,653,0.0,0.0
2024-09-11 11:56:00-04:00,149.44500732421875,149.52000427246094,149.44500732421875,149.52000427246094,645,0.0,0.0
2024-09-11 12:01:00-04:00,149.60000610351562,149.60000610351562,149.60000610351562,149.60000610351562,1305,0.0,0.0
2024-09-11 12:09:00-04:00,149.8000030517578,150.11000061035156,149.8000030517578,150.11000061035156,1436,0.0,0.0
2024-09-11 12:12:00-04:00,149.9600067138672,149.9600067138672,149.92999267578125,149.92999267578125,260,0.0,0.0
2024-09-11 12:13:00-04:00,149.88999938964844,149.88999938964844,149.85000610351562,149.85000610351562,664,0.0,0.0
2024-09-11 12:25:00-04:00,150.0,150.0,150.0,150.0,190,0.0,0.0
2024-09-11 12:26:00-04:00,150.0,150.0,150.0,150.0,295,0.0,0.0
2024-09-11 12:27:00-04:00,149.94500732421875,149.94500732421875,149.85000610351562,149.85000610351562,874,0.0,0.0
2024-09-11 12:29:00-04:00,149.83999633789062,149.97999572753906,149.8350067138672,149.8350067138672,850,0.0,0.0
2024-09-11 12:35:00-04:00,149.67999267578125,149.67999267578125,149.67999267578125,149.67999267578125,376,0.0,0.0
2024-09-11 12:40:00-04:00,149.85499572753906,149.85499572753906,149.85499572753906,149.85499572753906,228,0.0,0.0
2024-09-11 12:41:00-04:00,149.83999633789062,149.83999633789062,149.83999633789062,149.83999633789062,174,0.0,0.0
2024-09-11 12:42:00-04:00,149.7899932861328,149.7899932861328,149.77000427246094,149.77000427246094,610,0.0,0.0
2024-09-11 12:45:00-04:00,149.7899932861328,149.7899932861328,149.7899932861328,149.7899932861328,659,0.0,0.0
2024-09-11 12:46:00-04:00,149.85000610351562,149.85000610351562,149.72500610351562,149.72500610351562,1448,0.0,0.0
2024-09-11 12:54:00-04:00,149.75999450683594,149.75999450683594,149.75999450683594,149.75999450683594,110,0.0,0.0
2024-09-11 12:55:00-04:00,149.75999450683594,149.75999450683594,149.75,149.75999450683594,839,0.0,0.0
2024-09-11 12:57:00-04:00,149.75999450683594,149.75999450683594,149.75999450683594,149.75999450683594,565,0.0,0.0
2024-09-11 13:05:00-04:00,149.72000122070312,149.72000122070312,149.67999267578125,149.67999267578125,309,0.0,0.0
2024-09-11 13:06:00-04:00,149.6999969482422,149.74000549316406,149.6999969482422,149.74000549316406,1203,0.0,0.0
2024-09-11 13:07:00-04:00,149.80999755859375,149.80999755859375,149.7899932861328,149.7899932861328,906,0.0,0.0
2024-09-11 13:09:00-04:00,149.81500244140625,149.81500244140625,149.81500244140625,149.81500244140625,263,0.0,0.0
2024-09-11 13:12:00-04:00,149.8699951171875,149.8699951171875,149.80999755859375,149.80999755859375,1331,0.0,0.0
2024-09-11 13:13:00-04:00,149.86000061035156,149.89999389648438,149.72000122070312,149.72000122070312,1572,0.0,0.0
2024-09-11 13:14:00-04:00,149.72000122070312,149.72000122070312,149.72000122070312,149.72000122070312,700,0.0,0.0
2024-09-11 13:24:00-04:00,149.74000549316406,149.74009704589844,149.6708984375,149.6708984375,1543,0.0,0.0
2024-09-11 13:25:00-04:00,149.75999450683594,149.7899932861328,149.75999450683594,149.7899932861328,722,0.0,0.0
2024-09-11 13:27:00-04:00,149.7899932861328,149.7899932861328,149.7899932861328,149.7899932861328,619,0.0,0.0
2024-09-11 13:35:00-04:00,149.85000610351562,149.85000610351562,149.85000610351562,149.85000610351562,166,0.0,0.0
2024-09-11 13:37:00-04:00,149.8300018310547,149.85000610351562,149.8300018310547,149.85000610351562,371,0.0,0.0
2024-09-11 13:38:00-04:00,149.8699951171875,149.8699951171875,149.83999633789062,149.83999633789062,415,0.0,0.0
2024-09-11 13:39:00-04:00,149.8699951171875,149.8699951171875,149.8699951171875,149.8699951171875,219,0.0,0.0
2024-09-11 13:40:00-04:00,149.86000061035156,149.91000366210938,149.8300018310547,149.91000366210938,4173,0.0,0.0
2024-09-11 13:43:00-04:00,149.94000244140625,149.94000244140625,149.94000244140625,149.94000244140625,680,0.0,0.0
2024-09-11 13:47:00-04:00,150.00999450683594,150.13999938964844,150.00999450683594,150.13999938964844,857,0.0,0.0
2024-09-11 13:48:00-04:00,149.94000244140625,149.94000244140625,149.94000244140625,149.94000244140625,321,0.0,0.0
2024-09-11 13:53:00-04:00,150.125,150.16000366210938,150.125,150.16000366210938,1413,0.0,0.0
2024-09-11 13:57:00-04:00,150.16000366210938,150.16000366210938,150.16000366210938,150.16000366210938,801,0.0,0.0
2024-09-11 14:07:00-04:00,150.14999389648438,150.14999389648438,150.14999389648438,150.14999389648438,853,0.0,0.0
2024-09-11 14:17:00-04:00,150.14999389648438,150.14999389648438,150.14999389648438,150.14999389648438,551,0.0,0.0
2024-09-11 14:24:00-04:00,150.17999267578125,150.17999267578125,150.17999267578125,150.17999267578125,357,0.0,0.0
2024-09-11 14:27:00-04:00,150.19000244140625,150.19000244140625,150.1699981689453,150.18499755859375,934,0.0,0.0
2024-09-11 14:32:00-04:00,150.25999450683594,150.25999450683594,150.21499633789062,150.21499633789062,827,0.0,0.0
2024-09-11 14:40:00-04:00,150.35499572753906,150.35499572753906,150.35499572753906,150.35499572753906,726,0.0,0.0
2024-09-11 14:46:00-04:00,150.49000549316406,150.5,150.49000549316406,150.5,382,0.0,0.0
2024-09-11 14:47:00-04:00,150.52000427246094,150.52000427246094,150.52000427246094,150.52000427246094,1058,0.0,0.0
2024-09-11 14:49:00-04:00,150.58999633789062,150.58999633789062,150.5800018310547,150.58999633789062,561,0.0,0.0
2024-09-11 14:50:00-04:00,150.5399932861328,150.5399932861328,150.49000549316406,150.49000549316406,800,0.0,0.0
2024-09-11 14:53:00-04:00,150.49000549316406,150.49000549316406,150.49000549316406,150.49000549316406,476,0.0,0.0
2024-09-11 15:01:00-04:00,150.57000732421875,150.57000732421875,150.57000732421875,150.57000732421875,679,0.0,0.0
2024-09-11 15:02:00-04:00,150.5,150.5,150.49000549316406,150.49000549316406,808,0.0,0.0
2024-09-11 15:04:00-04:00,150.5399932861328,150.5399932861328,150.5399932861328,150.5399932861328,734,0.0,0.0
2024-09-11 15:05:00-04:00,150.5850067138672,150.5850067138672,150.5850067138672,150.5850067138672,147,0.0,0.0
2024-09-11 15:06:00-04:00,150.6300048828125,150.6300048828125,150.50999450683594,150.50999450683594,4137,0.0,0.0
2024-09-11 15:07:00-04:00,150.4600067138672,150.47999572753906,150.4199981689453,150.47999572753906,740,0.0,0.0
2024-09-11 15:09:00-04:00,150.3800048828125,150.3800048828125,150.36000061035156,150.3800048828125,468,0.0,0.0
2024-09-11 15:15:00-04:00,150.3699951171875,150.3699951171875,150.3699951171875,150.3699951171875,266,0.0,0.0
2024-09-11 15:18:00-04:00,150.52999877929688,150.52999877929688,150.52999877929688,150.52999877929688,309,0.0,0.0
2024-09-11 15:20:00-04:00,150.4199981689453,150.4199981689453,150.41000366210938,150.41000366210938,639,0.0,0.0
2024-09-11 15:22:00-04:00,150.57000732421875,150.57000732421875,150.57000732421875,150.57000732421875,734,0.0,0.0
2024-09-11 15:23:00-04:00,150.6300048828125,150.63499450683594,150.6300048828125,150.63499450683594,444,0.0,0.0
2024-09-11 15:24:00-04:00,150.5500030517578,150.57000732421875,150.44000244140625,150.44000244140625,1375,0.0,0.0
2024-09-11 15:29:00-04:00,150.61000061035156,150.61000061035156,150.61000061035156,150.61000061035156,540,0.0,0.0
2024-09-11 15:30:00-04:00,150.61000061035156,150.61000061035156,150.61000061035156,150.61000061035156,831,0.0,0.0
2024-09-11 15:34:00-04:00,150.61000061035156,150.6199951171875,150.61000061035156,150.6199951171875,1203,0.0,0.0
2024-09-11 15:35:00-04:00,150.61000061035156,150.61000061035156,150.5500030517578,150.5500030517578,397,0.0,0.0
2024-09-11 15:36:00-04:00,150.44000244140625,150.44000244140625,150.44000244140625,150.44000244140625,1494,0.0,0.0
2024-09-11 15:37:00-04:00,150.3300018310547,150.3300018310547,150.3300018310547,150.3300018310547,462,0.0,0.0
2024-09-11 15:39:00-04:00,150.32000732421875,150.32000732421875,150.3000030517578,150.3000030517578,722,0.0,0.0
2024-09-11 15:40:00-04:00,150.32000732421875,150.32000732421875,150.32000732421875,150.32000732421875,582,0.0,0.0
2024-09-11 15:41:00-04:00,150.3000030517578,150.3000030517578,150.27999877929688,150.2899932861328,1198,0.0,0.0
2024-09-11 15:42:00-04:00,150.27999877929688,150.27999877929688,150.22999572753906,150.22999572753906,948,0.0,0.0
2024-09-11 15:43:00-04:00,150.17999267578125,150.1999969482422,150.17999267578125,150.1999969482422,842,0.0,0.0
2024-09-11 15:45:00-04:00,150.21499633789062,150.22000122070312,150.21499633789062,150.22000122070312,391,0.0,0.0
2024-09-11 15:46:00-04:00,150.22000122070312,150.22000122070312,150.22000122070312,150.22000122070312,542,0.0,0.0
2024-09-11 15:47:00-04:00,150.2449951171875,150.2449951171875,150.2449951171875,150.2449951171875,895,0.0,0.0
2024-09-11 15:48:00-04:00,150.3000030517578,150.3000030517578,150.3000030517578,150.3000030517578,519,0.0,0.0
2024-09-11 15:49:00-04:00,150.2949981689453,150.33999633789062,150.2949981689453,150.33999633789062,775,0.0,0.0
2024-09-11 15:50:00-04:00,150.33999633789062,150.39999389648438,150.30999755859375,150.39300537109375,2489,0.0,0.0
2024-09-11 15:51:00-04:00,150.51499938964844,150.51499938964844,150.39500427246094,150.39500427246094,1092,0.0,0.0
2024-09-11 15:52:00-04:00,150.4600067138672,150.5399932861328,150.4600067138672,150.5399932861328,974,0.0,0.0
2024-09-11 15:54:00-04:00,150.69000244140625,150.73500061035156,150.57000732421875,150.63999938964844,4114,0.0,0.0
2024-09-11 15:55:00-04:00,150.625,150.625,150.625,150.625,469,0.0,0.0
2024-09-11 15:56:00-04:00,150.6699981689453,150.72000122070312,150.6699981689453,150.72000122070312,1647,0.0,0.0
2024-09-11 15:57:00-04:00,150.75999450683594,150.75999450683594,150.74000549316406,150.74000549316406,2001,0.0,0.0
2024-09-11 15:58:00-04:00,150.75,150.82000732421875,150.71499633789062,150.82000732421875,1952,0.0,0.0
2024-09-11 15:59:00-04:00,150.7899932861328,150.8800048828125,150.75,150.75,5071,0.0,0.0
2024-09-12 09:30:00-04:00,150.47999572753906,150.47999572753906,150.47999572753906,150.47999572753906,997,0.0,0.0
2024-09-12 09:40:00-04:00,151.26499938964844,151.26499938964844,151.26499938964844,151.26499938964844,265,0.0,0.0
2024-09-12 09:42:00-04:00,150.9600067138672,150.9600067138672,150.9499969482422,150.9499969482422,339,0.0,0.0
2024-09-12 09:48:00-04:00,150.84500122070312,150.84500122070312,150.84500122070312,150.84500122070312,428,0.0,0.0
2024-09-12 09:52:00-04:00,150.8350067138672,150.8350067138672,150.8350067138672,150.8350067138672,274,0.0,0.0
2024-09-12 09:53:00-04:00,150.8350067138672,150.8350067138672,150.8350067138672,150.8350067138672,723,0.0,0.0
2024-09-12 09:57:00-04:00,150.8350067138672,150.8350067138672,150.52999877929688,150.61500549316406,1054,0.0,0.0
2024-09-12 10:00:00-04:00,150.25999450683594,150.25999450683594,150.24000549316406,150.24000549316406,381,0.0,0.0
2024-09-12 10:01:00-04:00,149.97000122070312,149.97000122070312,149.97000122070312,149.97000122070312,124,0.0,0.0
2024-09-12 10:02:00-04:00,150.19000244140625,150.19000244140625,150.19000244140625,150.19000244140625,223,0.0,0.0
2024-09-12 10:05:00-04:00,150.1999969482422,150.1999969482422,149.97999572753906,149.97999572753906,633,0.0,0.0
2024-09-12 10:08:00-04:00,150.3000030517578,150.52999877929688,150.2899932861328,150.52999877929688,1982,0.0,0.0
2024-09-12 10:09:00-04:00,150.44000244140625,150.44000244140625,150.44000244140625,150.44000244140625,238,0.0,0.0
2024-09-12 10:13:00-04:00,150.52999877929688,150.52999877929688,150.52999877929688,150.52999877929688,651,0.0,0.0
2024-09-12 10:14:00-04:00,150.75,150.75,150.69749450683594,150.69749450683594,1247,0.0,0.0
2024-09-12 10:17:00-04:00,150.8300018310547,150.8300018310547,150.64999389648438,150.64999389648438,405,0.0,0.0
2024-09-12 10:18:00-04:00,150.8699951171875,150.88999938964844,150.64999389648438,150.69000244140625,4325,0.0,0.0
2024-09-12 10:20:00-04:00,150.6999969482422,150.6999969482422,150.6999969482422,150.6999969482422,100,0.0,0.0
2024-09-12 10:21:00-04:00,150.6999969482422,150.83999633789062,150.6999969482422,150.83999633789062,1016,0.0,0.0
2024-09-12 10:22:00-04:00,150.84500122070312,150.88499450683594,150.84500122070312,150.88499450683594,321,0.0,0.0
2024-09-12 10:25:00-04:00,150.94000244140625,150.99000549316406,150.94000244140625,150.99000549316406,620,0.0,0.0
2024-09-12 10:26:00-04:00,150.99000549316406,151.02999877929688,150.99000549316406,151.02999877929688,247,0.0,0.0
2024-09-12 10:27:00-04:00,150.97000122070312,150.97000122070312,150.91000366210938,150.9250030517578,1029,0.0,0.0
2024-09-12 10:28:00-04:00,150.9250030517578,150.9250030517578,150.9250030517578,150.9250030517578,130,0.0,0.0
2024-09-12 10:29:00-04:00,150.92999267578125,150.92999267578125,150.92999267578125,150.92999267578125,101,0.0,0.0
2024-09-12 10:30:00-04:00,150.92999267578125,150.92999267578125,150.92999267578125,150.92999267578125,125,0.0,0.0
2024-09-12 10:32:00-04:00,150.92999267578125,150.92999267578125,150.86000061035156,150.86000061035156,592,0.0,0.0
2024-09-12 10:34:00-04:00,151.00999450683594,151.0500030517578,151.0,151.0,1463,0.0,0.0
2024-09-12 10:35:00-04:00,151.06500244140625,151.06500244140625,150.97000122070312,150.97999572753906,1261,0.0,0.0
2024-09-12 10:36:00-04:00,151.0,151.0,151.0,151.0,406,0.0,0.0
2024-09-12 10:38:00-04:00,151.0,151.0,151.0,151.0,361,0.0,0.0
2024-09-12 10:39:00-04:00,151.06500244140625,151.06500244140625,150.89999389648438,150.89999389648438,1490,0.0,0.0
2024-09-12 10:40:00-04:00,151.02000427246094,151.02000427246094,151.02000427246094,151.02000427246094,105,0.0,0.0
2024-09-12 10:41:00-04:00,150.9199981689453,150.9199981689453,150.9199981689453,150.9199981689453,276,0.0,0.0
2024-09-12 10:42:00-04:00,150.91000366210938,150.91000366210938,150.91000366210938,150.91000366210938,194,0.0,0.0
2024-09-12 10:44:00-04:00,151.02499389648438,151.0399932861328,151.02499389648438,151.0399932861328,1305,0.0,0.0
2024-09-12 10:45:00-04:00,151.0,151.0449981689453,150.9600067138672,150.9600067138672,1288,0.0,0.0
2024-09-12 10:46:00-04:00,151.0500030517578,151.0500030517578,151.0500030517578,151.0500030517578,151,0.0,0.0
2024-09-12 10:47:00-04:00,151.10000610351562,151.17999267578125,151.0,151.16000366210938,3507,0.0,0.0
2024-09-12 10:49:00-04:00,151.2675018310547,151.2675018310547,151.25999450683594,151.25999450683594,566,0.0,0.0
2024-09-12 10:54:00-04:00,151.0800018310547,151.0800018310547,151.0800018310547,151.0800018310547,878,0.0,0.0
2024-09-12 10:57:00-04:00,151.07000732421875,151.07000732421875,151.07000732421875,151.07000732421875,399,0.0,0.0
2024-09-12 10:58:00-04:00,150.77000427246094,150.77000427246094,150.77000427246094,150.77000427246094,137,0.0,0.0
2024-09-12 10:59:00-04:00,150.91000366210938,150.91000366210938,150.91000366210938,150.91000366210938,430,0.0,0.0
2024-09-12 11:00:00-04:00,150.74000549316406,150.74000549316406,150.74000549316406,150.74000549316406,451,0.0,0.0
2024-09-12 11:01:00-04:00,150.8800048828125,150.8800048828125,150.8800048828125,150.8800048828125,223,0.0,0.0
2024-09-12 11:03:00-04:00,150.9149932861328,150.9149932861328,150.9149932861328,150.9149932861328,221,0.0,0.0
2024-09-12 11:05:00-04:00,151.02000427246094,151.02999877929688,151.0,151.0,777,0.0,0.0
2024-09-12 11:08:00-04:00,151.0,151.0,150.97000122070312,150.97999572753906,507,0.0,0.0
2024-09-12 11:09:00-04:00,151.13999938964844,151.13999938964844,151.13999938964844,151.13999938964844,167,0.0,0.0
2024-09-12 11:12:00-04:00,151.00999450683594,151.00999450683594,151.00999450683594,151.00999450683594,410,0.0,0.0
2024-09-12 11:16:00-04:00,151.00999450683594,151.00999450683594,151.00999450683594,151.00999450683594,213,0.0,0.0
2024-09-12 11:17:00-04:00,151.00999450683594,151.00999450683594,151.00999450683594,151.00999450683594,293,0.0,0.0
2024-09-12 11:21:00-04:00,150.97000122070312,150.97000122070312,150.97000122070312,150.97000122070312,401,0.0,0.0
2024-09-12 11:23:00-04:00,150.86000061035156,150.93499755859375,150.86000061035156,150.93499755859375,393,0.0,0.0
2024-09-12 11:25:00-04:00,150.86000061035156,150.86000061035156,150.86000061035156,150.86000061035156,200,0.0,0.0
2024-09-12 11:26:00-04:00,150.9199981689453,150.9199981689453,150.9199981689453,150.9199981689453,415,0.0,0.0
2024-09-12 11:28:00-04:00,150.9250030517578,150.9250030517578,150.9250030517578,150.9250030517578,127,0.0,0.0
2024-09-12 11:30:00-04:00,150.8699951171875,150.9149932861328,150.83999633789062,150.83999633789062,992,0.0,0.0
2024-09-12 11:31:00-04:00,150.80999755859375,150.90499877929688,150.80999755859375,150.90499877929688,462,0.0,0.0
2024-09-12 11:32:00-04:00,150.94500732421875,150.94500732421875,150.94500732421875,150.94500732421875,101,0.0,0.0
2024-09-12 11:33:00-04:00,150.94000244140625,150.94000244140625,150.94000244140625,150.94000244140625,154,0.0,0.0
2024-09-12 11:35:00-04:00,150.88999938964844,150.88999938964844,150.88999938964844,150.88999938964844,221,0.0,0.0
2024-09-12 11:36:00-04:00,150.99000549316406,150.99000549316406,150.99000549316406,150.99000549316406,370,0.0,0.0
2024-09-12 11:43:00-04:00,150.99000549316406,150.99000549316406,150.99000549316406,150.99000549316406,876,0.0,0.0
2024-09-12 11:46:00-04:00,150.77000427246094,150.77000427246094,150.77000427246094,150.77000427246094,220,0.0,0.0
2024-09-12 11:47:00-04:00,150.77000427246094,150.7899932861328,150.77000427246094,150.77000427246094,710,0.0,0.0
2024-09-12 11:55:00-04:00,150.6699981689453,150.6699981689453,150.6699981689453,150.6699981689453,246,0.0,0.0
2024-09-12 11:57:00-04:00,150.6699981689453,150.6699981689453,150.6699981689453,150.6699981689453,106,0.0,0.0
2024-09-12 11:58:00-04:00,150.5500030517578,150.5500030517578,150.52999877929688,150.52999877929688,201,0.0,0.0
2024-09-12 11:59:00-04:00,150.6750030517578,150.6750030517578,150.6750030517578,150.6750030517578,118,0.0,0.0
2024-09-12 12:01:00-04:00,150.6750030517578,150.77999877929688,150.6750030517578,150.77999877929688,571,0.0,0.0
2024-09-12 12:03:00-04:00,150.6750030517578,150.6750030517578,150.6750030517578,150.6750030517578,174,0.0,0.0
2024-09-12 12:04:00-04:00,150.6750030517578,150.6750030517578,150.6750030517578,150.6750030517578,444,0.0,0.0
2024-09-12 12:05:00-04:00,150.6750030517578,150.67999267578125,150.6750030517578,150.67999267578125,536,0.0,0.0
2024-09-12 12:06:00-04:00,150.77000427246094,150.77000427246094,150.77000427246094,150.77000427246094,312,0.0,0.0
2024-09-12 12:07:00-04:00,150.7449951171875,150.75999450683594,150.7449951171875,150.75999450683594,252,0.0,0.0
2024-09-12 12:09:00-04:00,150.8000030517578,150.8000030517578,150.8000030517578,150.8000030517578,224,0.0,0.0
2024-09-12 12:11:00-04:00,150.85499572753906,150.85499572753906,150.85499572753906,150.85499572753906,1589,0.0,0.0
2024-09-12 12:13:00-04:00,150.83999633789062,150.83999633789062,150.781494140625,150.781494140625,644,0.0,0.0
2024-09-12 12:15:00-04:00,150.8300018310547,150.8300018310547,150.8300018310547,150.8300018310547,100,0.0,0.0
2024-09-12 12:16:00-04:00,150.75970458984375,150.75970458984375,150.75970458984375,150.75970458984375,363,0.0,0.0
2024-09-12 12:18:00-04:00,150.8000030517578,150.86000061035156,150.8000030517578,150.86000061035156,301,0.0,0.0
2024-09-12 12:22:00-04:00,150.875,150.875,150.875,150.875,227,0.0,0.0
2024-09-12 12:23:00-04:00,150.8699951171875,150.8699951171875,150.72500610351562,150.72500610351562,558,0.0,0.0
2024-09-12 12:24:00-04:00,150.64999389648438,150.64999389648438,150.64999389648438,150.64999389648438,192,0.0,0.0
2024-09-12 12:25:00-04:00,150.66000366210938,150.66000366210938,150.66000366210938,150.66000366210938,137,0.0,0.0
2024-09-12 12:26:00-04:00,150.50999450683594,150.50999450683594,150.50999450683594,150.50999450683594,186,0.0,0.0
2024-09-12 12:27:00-04:00,150.6199951171875,150.6199951171875,150.6199951171875,150.6199951171875,521,0.0,0.0
2024-09-12 12:33:00-04:00,150.6199951171875,150.6199951171875,150.3699951171875,150.50999450683594,768,0.0,0.0
2024-09-12 12:34:00-04:00,150.47999572753906,150.64999389648438,150.39999389648438,150.39999389648438,431,0.0,0.0
2024-09-12 12:35:00-04:00,150.42999267578125,150.42999267578125,150.42999267578125,150.42999267578125,166,0.0,0.0
2024-09-12 12:36:00-04:00,150.52499389648438,150.52499389648438,150.4149932861328,150.4149932861328,426,0.0,0.0
2024-09-12 12:40:00-04:00,150.4149932861328,150.4149932861328,150.4149932861328,150.4149932861328,186,0.0,0.0
2024-09-12 12:44:00-04:00,150.36000061035156,150.36000061035156,150.36000061035156,150.36000061035156,169,0.0,0.0
2024-09-12 12:45:00-04:00,150.3800048828125,150.4499969482422,150.3300018310547,150.4499969482422,324,0.0,0.0
2024-09-12 12:46:00-04:00,150.35000610351562,150.35000610351562,150.35000610351562,150.35000610351562,383,0.0,0.0
2024-09-12 12:49:00-04:00,150.46249389648438,150.46249389648438,150.46249389648438,150.46249389648438,226,0.0,0.0
2024-09-12 12:52:00-04:00,150.57000732421875,150.57000732421875,150.57000732421875,150.57000732421875,1217,0.0,0.0
2024-09-12 12:53:00-04:00,150.6699981689453,150.6699981689453,150.6699981689453,150.6699981689453,591,0.0,0.0
2024-09-12 13:07:00-04:00,150.97999572753906,150.97999572753906,150.97999572753906,150.97999572753906,110,0.0,0.0
2024-09-12 13:09:00-04:00,151.0,151.0,151.0,151.0,351,0.0,0.0
2024-09-12 13:10:00-04:00,151.00999450683594,151.00999450683594,151.00999450683594,151.00999450683594,102,0.0,0.0
2024-09-12 13:11:00-04:00,151.00999450683594,151.02000427246094,151.0,151.02000427246094,734,0.0,0.0
2024-09-12 13:12:00-04:00,151.02000427246094,151.08999633789062,151.02000427246094,151.08999633789062,964,0.0,0.0
2024-09-12 13:13:00-04:00,151.07000732421875,151.07000732421875,150.99000549316406,150.99000549316406,907,0.0,0.0
2024-09-12 13:18:00-04:00,151.125,151.125,151.125,151.125,225,0.0,0.0
2024-09-12 13:20:00-04:00,151.125,151.125,151.125,151.125,109,0.0,0.0
2024-09-12 13:22:00-04:00,151.125,151.125,151.125,151.125,168,0.0,0.0
2024-09-12 13:23:00-04:00,151.25990295410156,151.25990295410156,151.0,151.0,457,0.0,0.0
2024-09-12 13:25:00-04:00,151.22999572753906,151.22999572753906,151.125,151.125,950,0.0,0.0
2024-09-12 13:29:00-04:00,150.99000549316406,151.0,150.99000549316406,151.0,813,0.0,0.0
2024-09-12 13:37:00-04:00,150.94000244140625,150.94000244140625,150.94000244140625,150.94000244140625,128,0.0,0.0
2024-09-12 13:38:00-04:00,150.94000244140625,151.02999877929688,150.94000244140625,151.02999877929688,629,0.0,0.0
2024-09-12 13:39:00-04:00,150.97000122070312,150.97000122070312,150.94000244140625,150.9499969482422,330,0.0,0.0
2024-09-12 13:41:00-04:00,150.94000244140625,150.94000244140625,150.94000244140625,150.94000244140625,116,0.0,0.0
2024-09-12 13:44:00-04:00,151.02999877929688,151.02999877929688,151.02999877929688,151.02999877929688,170,0.0,0.0
2024-09-12 13:45:00-04:00,151.0399932861328,151.0399932861328,151.0399932861328,151.0399932861328,867,0.0,0.0
2024-09-12 13:46:00-04:00,151.08250427246094,151.08250427246094,151.08250427246094,151.08250427246094,264,0.0,0.0
2024-09-12 13:47:00-04:00,151.0800018310547,151.13499450683594,151.0800018310547,151.13499450683594,293,0.0,0.0
2024-09-12 13:48:00-04:00,151.0749969482422,151.0749969482422,151.0749969482422,151.0749969482422,949,0.0,0.0
2024-09-12 13:50:00-04:00,151.0749969482422,151.0749969482422,150.97999572753906,150.97999572753906,209,0.0,0.0
2024-09-12 13:52:00-04:00,151.0749969482422,151.27499389648438,151.0749969482422,151.27499389648438,1496,0.0,0.0
2024-09-12 13:59:00-04:00,151.27999877929688,151.27999877929688,151.27999877929688,151.27999877929688,341,0.0,0.0
2024-09-12 14:00:00-04:00,151.26499938964844,151.26499938964844,151.26499938964844,151.26499938964844,3739,0.0,0.0
2024-09-12 14:01:00-04:00,151.25999450683594,151.25999450683594,151.25999450683594,151.25999450683594,100,0.0,0.0
2024-09-12 14:02:00-04:00,151.19000244140625,151.4199981689453,151.1699981689453,151.4199981689453,1540,0.0,0.0
2024-09-12 14:05:00-04:00,151.43499755859375,151.44000244140625,151.43499755859375,151.44000244140625,590,0.0,0.0
2024-09-12 14:08:00-04:00,151.4550018310547,151.4550018310547,151.4499969482422,151.4499969482422,485,0.0,0.0
2024-09-12 14:09:00-04:00,151.4499969482422,151.4550018310547,151.4499969482422,151.4550018310547,776,0.0,0.0
2024-09-12 14:10:00-04:00,151.5399932861328,151.5399932861328,151.5399932861328,151.5399932861328,143,0.0,0.0
2024-09-12 14:12:00-04:00,151.5500030517578,151.5500030517578,151.52000427246094,151.52000427246094,593,0.0,0.0
2024-09-12 14:13:00-04:00,151.5800018310547,151.5800018310547,151.48500061035156,151.48500061035156,312,0.0,0.0
2024-09-12 14:15:00-04:00,151.5,151.5,151.5,151.5,676,0.0,0.0
2024-09-12 14:18:00-04:00,151.52000427246094,151.52499389648438,151.52000427246094,151.52000427246094,476,0.0,0.0
2024-09-12 14:19:00-04:00,151.49000549316406,151.50999450683594,151.48500061035156,151.50999450683594,546,0.0,0.0
2024-09-12 14:21:00-04:00,151.46499633789062,151.46499633789062,151.46499633789062,151.46499633789062,353,0.0,0.0
2024-09-12 14:22:00-04:00,151.47500610351562,151.47500610351562,151.47500610351562,151.47500610351562,112,0.0,0.0
2024-09-12 14:23:00-04:00,151.5050048828125,151.5050048828125,151.47999572753906,151.47999572753906,632,0.0,0.0
2024-09-12 14:24:00-04:00,151.5399932861328,151.5399932861328,151.5399932861328,151.5399932861328,950,0.0,0.0
2024-09-12 14:25:00-04:00,151.59500122070312,151.59500122070312,151.59500122070312,151.59500122070312,221,0.0,0.0
2024-09-12 14:26:00-04:00,151.59500122070312,151.7449951171875,151.59500122070312,151.7449951171875,538,0.0,0.0
2024-09-12 14:27:00-04:00,151.67999267578125,151.67999267578125,151.67999267578125,151.67999267578125,218,0.0,0.0
2024-09-12 14:28:00-04:00,151.67999267578125,151.67999267578125,151.67999267578125,151.67999267578125,205,0.0,0.0
2024-09-12 14:29:00-04:00,151.64999389648438,151.64999389648438,151.64999389648438,151.64999389648438,314,0.0,0.0
2024-09-12 14:32:00-04:00,151.5850067138672,151.5850067138672,151.5850067138672,151.5850067138672,225,0.0,0.0
2024-09-12 14:34:00-04:00,151.5500030517578,151.5500030517578,151.5500030517578,151.5500030517578,428,0.0,0.0
2024-09-12 14:41:00-04:00,151.52999877929688,151.52999877929688,151.52999877929688,151.52999877929688,225,0.0,0.0
2024-09-12 14:46:00-04:00,151.5399932861328,151.5399932861328,151.5399932861328,151.5399932861328,115,0.0,0.0
2024-09-12 14:49:00-04:00,151.5500030517578,151.58999633789062,151.48500061035156,151.49000549316406,2046,0.0,0.0
2024-09-12 14:50:00-04:00,151.48500061035156,151.48500061035156,151.48500061035156,151.48500061035156,171,0.0,0.0
2024-09-12 14:51:00-04:00,151.48500061035156,151.48500061035156,151.1649932861328,151.24000549316406,2441,0.0,0.0
2024-09-12 14:52:00-04:00,151.13999938964844,151.13999938964844,151.13999938964844,151.13999938964844,609,0.0,0.0
2024-09-12 14:54:00-04:00,151.27000427246094,151.36000061035156,151.25999450683594,151.36000061035156,1032,0.0,0.0
2024-09-12 14:55:00-04:00,151.3800048828125,151.44000244140625,151.3800048828125,151.44000244140625,259,0.0,0.0
2024-09-12 14:56:00-04:00,151.3699951171875,151.3699951171875,151.3699951171875,151.3699951171875,251,0.0,0.0
2024-09-12 14:57:00-04:00,151.52999877929688,151.52999877929688,151.52999877929688,151.52999877929688,318,0.0,0.0
2024-09-12 14:59:00-04:00,151.60000610351562,151.6199951171875,151.58999633789062,151.6199951171875,1354,0.0,0.0
2024-09-12 15:02:00-04:00,151.47500610351562,151.55999755859375,151.47500610351562,151.55999755859375,426,0.0,0.0
2024-09-12 15:05:00-04:00,151.44000244140625,151.44000244140625,151.3800048828125,151.3800048828125,778,0.0,0.0
2024-09-12 15:08:00-04:00,151.4550018310547,151.4550018310547,151.4550018310547,151.4550018310547,1664,0.0,0.0
2024-09-12 15:12:00-04:00,151.45770263671875,151.45770263671875,151.45770263671875,151.45770263671875,179,0.0,0.0
2024-09-12 15:14:00-04:00,151.44500732421875,151.47000122070312,151.44500732421875,151.47000122070312,433,0.0,0.0
2024-09-12 15:15:00-04:00,151.5,151.50999450683594,151.5,151.50999450683594,861,0.0,0.0
2024-09-12 15:16:00-04:00,151.52000427246094,151.52000427246094,151.52000427246094,151.52000427246094,647,0.0,0.0
2024-09-12 15:21:00-04:00,151.5,151.5,151.5,151.5,1840,0.0,0.0
2024-09-12 15:25:00-04:00,151.5800018310547,151.5800018310547,151.5800018310547,151.5800018310547,764,0.0,0.0
2024-09-12 15:30:00-04:00,151.4949951171875,151.4949951171875,151.47000122070312,151.47000122070312,1260,0.0,0.0
2024-09-12 15:33:00-04:00,151.57000732421875,151.60000610351562,151.57000732421875,151.57000732421875,784,0.0,0.0
2024-09-12 15:34:00-04:00,151.64999389648438,151.64999389648438,151.5500030517578,151.5500030517578,1341,0.0,0.0
2024-09-12 15:35:00-04:00,151.47999572753906,151.47999572753906,151.47999572753906,151.47999572753906,441,0.0,0.0
2024-09-12 15:36:00-04:00,151.57000732421875,151.57000732421875,151.57000732421875,151.57000732421875,375,0.0,0.0
2024-09-12 15:39:00-04:00,151.63999938964844,151.63999938964844,151.63999938964844,151.63999938964844,297,0.0,0.0
2024-09-12 15:40:00-04:00,151.67999267578125,151.68499755859375,151.67999267578125,151.68499755859375,1277,0.0,0.0
2024-09-12 15:41:00-04:00,151.72000122070312,151.72999572753906,151.6999969482422,151.71499633789062,1195,0.0,0.0
2024-09-12 15:43:00-04:00,151.7050018310547,151.7100067138672,151.7050018310547,151.7100067138672,1039,0.0,0.0
2024-09-12 15:44:00-04:00,151.71499633789062,151.72000122070312,151.71499633789062,151.72000122070312,235,0.0,0.0
2024-09-12 15:45:00-04:00,151.74000549316406,151.83999633789062,151.74000549316406,151.8300018310547,1609,0.0,0.0
2024-09-12 15:46:00-04:00,151.86000061035156,151.86000061035156,151.86000061035156,151.86000061035156,614,0.0,0.0
2024-09-12 15:47:00-04:00,151.8699951171875,151.8699951171875,151.83999633789062,151.83999633789062,1118,0.0,0.0
2024-09-12 15:48:00-04:00,151.8800048828125,151.89999389648438,151.8800048828125,151.89999389648438,1001,0.0,0.0
2024-09-12 15:49:00-04:00,151.89999389648438,151.89999389648438,151.86000061035156,151.86000061035156,1248,0.0,0.0
2024-09-12 15:50:00-04:00,151.8699951171875,151.8800048828125,151.81500244140625,151.8800048828125,3130,0.0,0.0
2024-09-12 15:51:00-04:00,151.8000030517578,151.80499267578125,151.8000030517578,151.80499267578125,727,0.0,0.0
2024-09-12 15:52:00-04:00,151.72000122070312,151.8000030517578,151.72000122070312,151.8000030517578,1643,0.0,0.0
2024-09-12 15:53:00-04:00,151.88999938964844,151.9199981689453,151.8800048828125,151.88499450683594,1765,0.0,0.0
2024-09-12 15:54:00-04:00,151.85000610351562,151.9600067138672,151.83999633789062,151.9600067138672,2566,0.0,0.0
2024-09-12 15:55:00-04:00,151.97999572753906,152.00999450683594,151.9199981689453,151.97999572753906,6449,0.0,0.0
2024-09-12 15:58:00-04:00,151.85000610351562,151.9600067138672,151.85000610351562,151.91000366210938,13460,0.0,0.0
2024-09-12 15:59:00-04:00,151.85000610351562,152.00999450683594,151.7899932861328,152.00999450683594,5447,0.0,0.0
2024-09-13 09:30:00-04:00,152.19000244140625,152.19000244140625,151.89500427246094,151.89500427246094,5155,0.0,0.0
2024-09-13 09:34:00-04:00,152.0,152.38999938964844,152.0,152.0,2746,0.0,0.0
2024-09-13 09:35:00-04:00,152.0,152.0,152.0,152.0,126,0.0,0.0
2024-09-13 09:36:00-04:00,152.02999877929688,152.07000732421875,151.97999572753906,151.97999572753906,2657,0.0,0.0
2024-09-13 09:38:00-04:00,152.0,152.24000549316406,152.0,152.24000549316406,2885,0.0,0.0
2024-09-13 09:39:00-04:00,152.19000244140625,152.33999633789062,152.19000244140625,152.33999633789062,224,0.0,0.0
2024-09-13 09:41:00-04:00,152.21499633789062,152.21499633789062,152.21499633789062,152.21499633789062,114,0.0,0.0
2024-09-13 09:42:00-04:00,152.05999755859375,152.3000030517578,152.05999755859375,152.3000030517578,1422,0.0,0.0
2024-09-13 09:46:00-04:00,152.2899932861328,152.2899932861328,152.2899932861328,152.2899932861328,518,0.0,0.0
2024-09-13 09:47:00-04:00,152.47999572753906,152.47999572753906,152.47000122070312,152.47000122070312,514,0.0,0.0
2024-09-13 09:48:00-04:00,152.6300048828125,152.6300048828125,152.6300048828125,152.6300048828125,494,0.0,0.0
2024-09-13 09:49:00-04:00,152.64999389648438,152.64999389648438,152.64999389648438,152.64999389648438,478,0.0,0.0
2024-09-13 09:53:00-04:00,152.8699951171875,152.8699951171875,152.8699951171875,152.8699951171875,331,0.0,0.0
2024-09-13 09:58:00-04:00,153.0,153.0,153.0,153.0,584,0.0,0.0
2024-09-13 09:59:00-04:00,152.8800048828125,152.88999938964844,152.8800048828125,152.8800048828125,1003,0.0,0.0
2024-09-13 10:00:00-04:00,153.0,153.0,152.8699951171875,152.8699951171875,1533,0.0,0.0
2024-09-13 10:01:00-04:00,152.9199981689453,152.9199981689453,152.9199981689453,152.9199981689453,306,0.0,0.0
2024-09-13 10:02:00-04:00,152.82000732421875,152.82000732421875,152.69500732421875,152.69500732421875,533,0.0,0.0
2024-09-13 10:05:00-04:00,152.67999267578125,152.67999267578125,152.67999267578125,152.67999267578125,906,0.0,0.0
2024-09-13 10:06:00-04:00,152.41000366210938,152.4199981689453,152.41000366210938,152.41000366210938,577,0.0,0.0
2024-09-13 10:07:00-04:00,152.41000366210938,152.41000366210938,152.41000366210938,152.41000366210938,932,0.0,0.0
2024-09-13 10:12:00-04:00,152.8000030517578,152.8000030517578,152.72999572753906,152.72999572753906,474,0.0,0.0
2024-09-13 10:14:00-04:00,152.75999450683594,152.75999450683594,152.75999450683594,152.75999450683594,134,0.0,0.0
2024-09-13 10:15:00-04:00,152.72000122070312,153.0050048828125,152.72000122070312,152.85499572753906,1563,0.0,0.0
2024-09-13 10:16:00-04:00,152.85000610351562,152.85000610351562,152.85000610351562,152.85000610351562,832,0.0,0.0
2024-09-13 10:18:00-04:00,152.7100067138672,152.7100067138672,152.7100067138672,152.7100067138672,602,0.0,0.0
2024-09-13 10:23:00-04:00,152.89999389648438,153.0,152.89999389648438,152.94500732421875,1815,0.0,0.0
2024-09-13 10:24:00-04:00,152.91000366210938,152.97999572753906,152.91000366210938,152.96060180664062,901,0.0,0.0
2024-09-13 10:26:00-04:00,152.92999267578125,152.92999267578125,152.92999267578125,152.92999267578125,146,0.0,0.0
2024-09-13 10:27:00-04:00,152.92999267578125,152.9499969482422,152.8000030517578,152.8000030517578,1543,0.0,0.0
2024-09-13 10:28:00-04:00,152.75,152.75,152.75,152.75,586,0.0,0.0
2024-09-13 10:32:00-04:00,152.74000549316406,152.74000549316406,152.74000549316406,152.74000549316406,242,0.0,0.0
2024-09-13 10:34:00-04:00,152.61500549316406,152.61500549316406,152.61500549316406,152.61500549316406,221,0.0,0.0
2024-09-13 10:37:00-04:00,152.61000061035156,152.61000061035156,152.61000061035156,152.61000061035156,115,0.0,0.0
2024-09-13 10:38:00-04:00,152.75619506835938,152.75619506835938,152.75619506835938,152.75619506835938,191,0.0,0.0
2024-09-13 10:40:00-04:00,152.7899932861328,152.7899932861328,152.7899932861328,152.7899932861328,0,0.0,0.0
2024-09-13 10:44:00-04:00,152.86000061035156,152.86000061035156,152.86000061035156,152.86000061035156,35944,0.0,0.0
2024-09-13 10:45:00-04:00,152.86000061035156,152.86000061035156,152.86000061035156,152.86000061035156,321,0.0,0.0
2024-09-13 10:46:00-04:00,152.8350067138672,152.8350067138672,152.7449951171875,152.7449951171875,492,0.0,0.0
2024-09-13 10:48:00-04:00,152.8350067138672,152.8350067138672,152.8300018310547,152.8300018310547,374,0.0,0.0
2024-09-13 10:52:00-04:00,152.8300018310547,152.8300018310547,152.8300018310547,152.8300018310547,156,0.0,0.0
2024-09-13 10:54:00-04:00,152.7100067138672,152.7100067138672,152.7100067138672,152.7100067138672,195,0.0,0.0
2024-09-13 10:56:00-04:00,152.75999450683594,152.77000427246094,152.7449951171875,152.7449951171875,524,0.0,0.0
2024-09-13 10:57:00-04:00,152.74000549316406,152.74000549316406,152.63999938964844,152.69000244140625,597,0.0,0.0
2024-09-13 10:59:00-04:00,152.64500427246094,152.64500427246094,152.64500427246094,152.64500427246094,161,0.0,0.0
2024-09-13 11:01:00-04:00,152.60000610351562,152.60000610351562,152.60000610351562,152.60000610351562,391,0.0,0.0
2024-09-13 11:03:00-04:00,152.72000122070312,152.72000122070312,152.72000122070312,152.72000122070312,109,0.0,0.0
2024-09-13 11:04:00-04:00,152.6999969482422,152.6999969482422,152.6999969482422,152.6999969482422,194,0.0,0.0
2024-09-13 11:05:00-04:00,152.5850067138672,152.6999969482422,152.5850067138672,152.6999969482422,701,0.0,0.0
2024-09-13 11:07:00-04:00,152.69000244140625,152.69000244140625,152.69000244140625,152.69000244140625,275,0.0,0.0
2024-09-13 11:10:00-04:00,152.72000122070312,152.72000122070312,152.6699981689453,152.72000122070312,1115,0.0,0.0
2024-09-13 11:12:00-04:00,152.72000122070312,152.72000122070312,152.72000122070312,152.72000122070312,107,0.0,0.0
2024-09-13 11:13:00-04:00,152.71499633789062,152.71499633789062,152.71499633789062,152.71499633789062,1053,0.0,0.0
2024-09-13 11:19:00-04:00,152.625,152.625,152.625,152.625,100,0.0,0.0
2024-09-13 11:20:00-04:00,152.63999938964844,152.69000244140625,152.58999633789062,152.58999633789062,844,0.0,0.0
2024-09-13 11:21:00-04:00,152.7100067138672,152.7100067138672,152.57000732421875,152.57000732421875,446,0.0,0.0
2024-09-13 11:22:00-04:00,152.7100067138672,152.72000122070312,152.55999755859375,152.55999755859375,385,0.0,0.0
2024-09-13 11:23:00-04:00,152.71499633789062,152.71499633789062,152.7100067138672,152.7100067138672,247,0.0,0.0
2024-09-13 11:24:00-04:00,152.5800018310547,152.5800018310547,152.5800018310547,152.5800018310547,370,0.0,0.0
2024-09-13 11:27:00-04:00,152.5,152.5,152.5,152.5,434,0.0,0.0
2024-09-13 11:28:00-04:00,152.52000427246094,152.52000427246094,152.52000427246094,152.52000427246094,103,0.0,0.0
2024-09-13 11:29:00-04:00,152.59500122070312,152.59500122070312,152.58999633789062,152.58999633789062,208,0.0,0.0
2024-09-13 11:30:00-04:00,152.5,152.5,152.48500061035156,152.48500061035156,553,0.0,0.0
2024-09-13 11:32:00-04:00,152.5,152.5,152.5,152.5,244,0.0,0.0
2024-09-13 11:34:00-04:00,152.50050354003906,152.50050354003906,152.5,152.5,316,0.0,0.0
2024-09-13 11:35:00-04:00,152.5749969482422,152.5749969482422,152.52999877929688,152.52999877929688,248,0.0,0.0
2024-09-13 11:36:00-04:00,152.52999877929688,152.52999877929688,152.52999877929688,152.52999877929688,412,0.0,0.0
2024-09-13 11:37:00-04:00,152.58999633789062,152.58999633789062,152.58999633789062,152.58999633789062,879,0.0,0.0
2024-09-13 11:40:00-04:00,152.58999633789062,152.58999633789062,152.58999633789062,152.58999633789062,223,0.0,0.0
2024-09-13 11:44:00-04:00,152.7050018310547,152.7050018310547,152.7050018310547,152.7050018310547,165,0.0,0.0
2024-09-13 11:46:00-04:00,152.7899932861328,152.7899932861328,152.7899932861328,152.7899932861328,130,0.0,0.0
2024-09-13 11:47:00-04:00,152.8800048828125,152.8800048828125,152.8800048828125,152.8800048828125,236,0.0,0.0
2024-09-13 11:48:00-04:00,152.92999267578125,153.0,152.92999267578125,152.9499969482422,5301,0.0,0.0
2024-09-13 11:49:00-04:00,152.80999755859375,152.85000610351562,152.7449951171875,152.7449951171875,935,0.0,0.0
2024-09-13 11:50:00-04:00,152.6699981689453,152.6699981689453,152.6699981689453,152.6699981689453,205,0.0,0.0
2024-09-13 11:51:00-04:00,152.6750030517578,152.6750030517578,152.50999450683594,152.50999450683594,502,0.0,0.0
2024-09-13 11:56:00-04:00,152.72000122070312,152.72000122070312,152.72000122070312,152.72000122070312,529,0.0,0.0
2024-09-13 12:07:00-04:00,152.8300018310547,152.8300018310547,152.8300018310547,152.8300018310547,1049,0.0,0.0
2024-09-13 12:17:00-04:00,152.89500427246094,152.89500427246094,152.89500427246094,152.89500427246094,103,0.0,0.0
2024-09-13 12:18:00-04:00,152.89500427246094,152.89500427246094,152.89500427246094,152.89500427246094,241,0.0,0.0
2024-09-13 12:19:00-04:00,152.88999938964844,152.88999938964844,152.88999938964844,152.88999938964844,518,0.0,0.0
2024-09-13 12:22:00-04:00,152.88999938964844,152.88999938964844,152.88999938964844,152.88999938964844,172,0.0,0.0
2024-09-13 12:25:00-04:00,152.77000427246094,152.77000427246094,152.75,152.75,402,0.0,0.0
2024-09-13 12:27:00-04:00,152.8000030517578,152.8000030517578,152.8000030517578,152.8000030517578,265,0.0,0.0
2024-09-13 12:28:00-04:00,152.77000427246094,152.77000427246094,152.77000427246094,152.77000427246094,908,0.0,0.0
2024-09-13 12:31:00-04:00,152.61000061035156,152.61000061035156,152.61000061035156,152.61000061035156,152,0.0,0.0
2024-09-13 12:32:00-04:00,152.62820434570312,152.62820434570312,152.62820434570312,152.62820434570312,256,0.0,0.0
2024-09-13 12:34:00-04:00,152.5800018310547,152.5800018310547,152.49000549316406,152.49000549316406,423,0.0,0.0
2024-09-13 12:37:00-04:00,152.55999755859375,152.6300048828125,152.55999755859375,152.6300048828125,693,0.0,0.0
2024-09-13 12:39:00-04:00,152.77000427246094,152.77000427246094,152.77000427246094,152.77000427246094,780,0.0,0.0
2024-09-13 12:50:00-04:00,152.8000030517578,152.8000030517578,152.8000030517578,152.8000030517578,860,0.0,0.0
2024-09-13 13:05:00-04:00,152.92999267578125,152.9600067138672,152.92999267578125,152.94000244140625,807,0.0,0.0
2024-09-13 13:07:00-04:00,152.92999267578125,152.92999267578125,152.92999267578125,152.92999267578125,121,0.0,0.0
2024-09-13 13:12:00-04:00,152.92999267578125,152.92999267578125,152.92999267578125,152.92999267578125,369,0.0,0.0
2024-09-13 13:16:00-04:00,152.89999389648438,152.89999389648438,152.89999389648438,152.89999389648438,467,0.0,0.0
2024-09-13 13:21:00-04:00,152.8699951171875,152.8699951171875,152.86000061035156,152.86000061035156,642,0.0,0.0
2024-09-13 13:22:00-04:00,152.77999877929688,152.77999877929688,152.77999877929688,152.77999877929688,183,0.0,0.0
2024-09-13 13:24:00-04:00,152.69000244140625,152.69000244140625,152.69000244140625,152.69000244140625,420,0.0,0.0
2024-09-13 13:30:00-04:00,152.82000732421875,152.82000732421875,152.82000732421875,152.82000732421875,150,0.0,0.0
2024-09-13 13:31:00-04:00,152.875,152.9199981689453,152.875,152.9199981689453,744,0.0,0.0
2024-09-13 13:33:00-04:00,152.88499450683594,152.88499450683594,152.88499450683594,152.88499450683594,411,0.0,0.0
2024-09-13 13:37:00-04:00,152.94000244140625,152.94000244140625,152.91000366210938,152.91000366210938,536,0.0,0.0
2024-09-13 13:38:00-04:00,152.9600067138672,152.9600067138672,152.9600067138672,152.9600067138672,321,0.0,0.0
2024-09-13 13:39:00-04:00,152.9600067138672,152.9600067138672,152.9600067138672,152.9600067138672,266,0.0,0.0
2024-09-13 13:40:00-04:00,152.90499877929688,152.90499877929688,152.90499877929688,152.90499877929688,148,0.0,0.0
2024-09-13 13:42:00-04:00,152.8800048828125,152.8800048828125,152.8800048828125,152.8800048828125,110,0.0,0.0
2024-09-13 13:43:00-04:00,152.8699951171875,152.8699951171875,152.8699951171875,152.8699951171875,457,0.0,0.0
2024-09-13 13:49:00-04:00,152.77999877929688,152.77999877929688,152.77999877929688,152.77999877929688,704,0.0,0.0
2024-09-13 14:00:00-04:00,152.42999267578125,152.42999267578125,152.42999267578125,152.42999267578125,448,0.0,0.0
2024-09-13 14:01:00-04:00,152.3699951171875,152.3699951171875,152.3699951171875,152.3699951171875,308,0.0,0.0
2024-09-13 14:05:00-04:00,152.4499969482422,152.4499969482422,152.4499969482422,152.4499969482422,217,0.0,0.0
2024-09-13 14:07:00-04:00,152.51499938964844,152.51499938964844,152.51499938964844,152.51499938964844,253,0.0,0.0
2024-09-13 14:08:00-04:00,152.5449981689453,152.5449981689453,152.5449981689453,152.5449981689453,334,0.0,0.0
2024-09-13 14:09:00-04:00,152.5399932861328,152.5399932861328,152.5399932861328,152.5399932861328,206,0.0,0.0
2024-09-13 14:12:00-04:00,152.50999450683594,152.50999450683594,152.50999450683594,152.50999450683594,256,0.0,0.0
2024-09-13 14:13:00-04:00,152.49000549316406,152.49000549316406,152.4600067138672,152.4600067138672,1102,0.0,0.0
2024-09-13 14:20:00-04:00,152.4149932861328,152.4149932861328,152.4149932861328,152.4149932861328,305,0.0,0.0
2024-09-13 14:23:00-04:00,152.41000366210938,152.41000366210938,152.41000366210938,152.41000366210938,1003,0.0,0.0
2024-09-13 14:32:00-04:00,152.33999633789062,152.35000610351562,152.33999633789062,152.35000610351562,627,0.0,0.0
2024-09-13 14:36:00-04:00,152.37060546875,152.37060546875,152.37060546875,152.37060546875,228,0.0,0.0
2024-09-13 14:38:00-04:00,152.25,152.25,152.25,152.25,132,0.0,0.0
2024-09-13 14:39:00-04:00,152.38999938964844,152.38999938964844,152.38999938964844,152.38999938964844,502,0.0,0.0
2024-09-13 14:41:00-04:00,152.3000030517578,152.3000030517578,152.3000030517578,152.3000030517578,331,0.0,0.0
2024-09-13 14:42:00-04:00,152.38999938964844,152.42999267578125,152.38999938964844,152.42999267578125,575,0.0,0.0
2024-09-13 14:43:00-04:00,152.42999267578125,152.42999267578125,152.27999877929688,152.27999877929688,654,0.0,0.0
2024-09-13 14:50:00-04:00,152.3000030517578,152.3000030517578,152.3000030517578,152.3000030517578,861,0.0,0.0
2024-09-13 14:52:00-04:00,152.3000030517578,152.3000030517578,152.3000030517578,152.3000030517578,123,0.0,0.0
2024-09-13 14:53:00-04:00,152.17999267578125,152.17999267578125,152.17999267578125,152.17999267578125,185,0.0,0.0
2024-09-13 14:57:00-04:00,152.2899932861328,152.2899932861328,152.2899932861328,152.2899932861328,561,0.0,0.0
2024-09-13 15:06:00-04:00,152.16000366210938,152.16000366210938,152.16000366210938,152.16000366210938,584,0.0,0.0
2024-09-13 15:12:00-04:00,152.0500030517578,152.0500030517578,152.02000427246094,152.02000427246094,447,0.0,0.0
2024-09-13 15:15:00-04:00,152.0,152.0,152.0,152.0,130,0.0,0.0
2024-09-13 15:16:00-04:00,152.08999633789062,152.08999633789062,152.0,152.0,2687,0.0,0.0
2024-09-13 15:17:00-04:00,152.0050048828125,152.0050048828125,151.9600067138672,151.9600067138672,1043,0.0,0.0
2024-09-13 15:23:00-04:00,152.1300048828125,152.44000244140625,152.06500244140625,152.3699951171875,4298,0.0,0.0
2024-09-13 15:24:00-04:00,152.2100067138672,152.22999572753906,152.2100067138672,152.22999572753906,894,0.0,0.0
2024-09-13 15:29:00-04:00,152.24000549316406,152.27999877929688,152.24000549316406,152.27000427246094,1071,0.0,0.0
2024-09-13 15:30:00-04:00,152.25,152.25,152.25,152.25,393,0.0,0.0
2024-09-13 15:31:00-04:00,152.27000427246094,152.27000427246094,152.27000427246094,152.27000427246094,298,0.0,0.0
2024-09-13 15:32:00-04:00,152.25,152.25,152.1999969482422,152.1999969482422,1351,0.0,0.0
2024-09-13 15:35:00-04:00,152.08999633789062,152.08999633789062,152.08999633789062,152.08999633789062,347,0.0,0.0
2024-09-13 15:36:00-04:00,152.0399932861328,152.0399932861328,152.0399932861328,152.0399932861328,371,0.0,0.0
2024-09-13 15:37:00-04:00,152.00999450683594,152.00999450683594,152.00999450683594,152.00999450683594,1398,0.0,0.0
2024-09-13 15:43:00-04:00,152.05999755859375,152.05999755859375,151.97999572753906,151.97999572753906,1110,0.0,0.0
2024-09-13 15:47:00-04:00,152.0399932861328,152.0399932861328,151.9499969482422,151.9499969482422,838,0.0,0.0
2024-09-13 15:50:00-04:00,152.13999938964844,152.13999938964844,152.0399932861328,152.11000061035156,1513,0.0,0.0
2024-09-13 15:51:00-04:00,152.10000610351562,152.10000610351562,152.05999755859375,152.05999755859375,1074,0.0,0.0
2024-09-13 15:52:00-04:00,152.11000061035156,152.125,152.0850067138672,152.125,891,0.0,0.0
2024-09-13 15:53:00-04:00,152.16000366210938,152.16000366210938,152.16000366210938,152.16000366210938,499,0.0,0.0
2024-09-13 15:54:00-04:00,152.22000122070312,152.22000122070312,152.1699981689453,152.18499755859375,1360,0.0,0.0
2024-09-13 15:56:00-04:00,152.17999267578125,152.19000244140625,152.17999267578125,152.19000244140625,1183,0.0,0.0
2024-09-13 15:57:00-04:00,152.1999969482422,152.1999969482422,152.19000244140625,152.19000244140625,1141,0.0,0.0
2024-09-13 15:58:00-04:00,152.24000549316406,152.30999755859375,152.24000549316406,152.3000030517578,2085,0.0,0.0
2024-09-13 15:59:00-04:00,152.27000427246094,152.33999633789062,152.27000427246094,152.33999633789062,3130,0.0,0.0
