Datetime,Open,High,Low,Close,Volume,Dividends,Stock Splits
2024-10-07 09:30:00-04:00,159.38999938964844,159.38999938964844,159.05999755859375,159.05999755859375,2518,0.0,0.0
2024-10-07 09:31:00-04:00,159.0,159.0,159.0,159.0,277,0.0,0.0
2024-10-07 09:34:00-04:00,158.61000061035156,158.61000061035156,158.61000061035156,158.61000061035156,441,0.0,0.0
2024-10-07 09:42:00-04:00,159.635498046875,159.635498046875,159.63499450683594,159.635498046875,443,0.0,0.0
2024-10-07 09:45:00-04:00,158.7100067138672,158.77000427246094,158.6199951171875,158.77000427246094,1007,0.0,0.0
2024-10-07 09:50:00-04:00,158.39979553222656,158.5399932861328,158.39979553222656,158.5399932861328,1576,0.0,0.0
2024-10-07 09:55:00-04:00,158.36500549316406,158.36500549316406,158.36500549316406,158.36500549316406,109,0.0,0.0
2024-10-07 09:56:00-04:00,158.1199951171875,158.1199951171875,158.1199951171875,158.1199951171875,606,0.0,0.0
2024-10-07 09:59:00-04:00,158.05499267578125,158.05499267578125,158.0500030517578,158.0500030517578,8172,0.0,0.0
2024-10-07 10:00:00-04:00,158.14999389648438,158.14999389648438,158.02999877929688,158.14999389648438,2281,0.0,0.0
2024-10-07 10:01:00-04:00,158.3800048828125,158.3800048828125,158.3800048828125,158.3800048828125,2114,0.0,0.0
2024-10-07 10:03:00-04:00,158.33999633789062,158.33999633789062,158.33999633789062,158.33999633789062,698,0.0,0.0
2024-10-07 10:04:00-04:00,158.43499755859375,158.43499755859375,158.25999450683594,158.25999450683594,495,0.0,0.0
2024-10-07 10:08:00-04:00,158.6300048828125,158.63999938964844,158.60000610351562,158.63999938964844,901,0.0,0.0
2024-10-07 10:09:00-04:00,158.5399932861328,158.71499633789062,158.5399932861328,158.6999969482422,1721,0.0,0.0
2024-10-07 10:14:00-04:00,158.68499755859375,158.68499755859375,158.68499755859375,158.68499755859375,688,0.0,0.0
2024-10-07 10:16:00-04:00,158.86000061035156,158.86000061035156,158.86000061035156,158.86000061035156,799,0.0,0.0
2024-10-07 10:21:00-04:00,158.69000244140625,158.86000061035156,158.69000244140625,158.86000061035156,1156,0.0,0.0
2024-10-07 10:22:00-04:00,158.875,158.875,158.875,158.875,135,0.0,0.0
2024-10-07 10:24:00-04:00,158.76280212402344,158.76280212402344,158.76280212402344,158.76280212402344,837,0.0,0.0
2024-10-07 10:26:00-04:00,158.75999450683594,158.75999450683594,158.75999450683594,158.75999450683594,223,0.0,0.0
2024-10-07 10:27:00-04:00,158.8300018310547,158.8300018310547,158.8300018310547,158.8300018310547,739,0.0,0.0
2024-10-07 10:31:00-04:00,158.625,158.625,158.625,158.625,175,0.0,0.0
2024-10-07 10:32:00-04:00,158.75,158.75,158.75,158.75,328,0.0,0.0
2024-10-07 10:36:00-04:00,158.82000732421875,158.85499572753906,158.82000732421875,158.85499572753906,856,0.0,0.0
2024-10-07 10:39:00-04:00,158.74000549316406,158.74000549316406,158.74000549316406,158.74000549316406,921,0.0,0.0
2024-10-07 10:41:00-04:00,158.69000244140625,158.69000244140625,158.69000244140625,158.69000244140625,337,0.0,0.0
2024-10-07 10:46:00-04:00,158.67999267578125,158.67999267578125,158.67999267578125,158.67999267578125,270,0.0,0.0
2024-10-07 10:47:00-04:00,158.6999969482422,158.6999969482422,158.64999389648438,158.64999389648438,229,0.0,0.0
2024-10-07 10:48:00-04:00,158.6300048828125,158.6300048828125,158.6300048828125,158.6300048828125,266,0.0,0.0
2024-10-07 10:55:00-04:00,158.63999938964844,158.63999938964844,158.63999938964844,158.63999938964844,252,0.0,0.0
2024-10-07 10:59:00-04:00,158.6199951171875,158.6199951171875,158.6199951171875,158.6199951171875,281,0.0,0.0
2024-10-07 11:00:00-04:00,158.4600067138672,158.4600067138672,158.4600067138672,158.4600067138672,536,0.0,0.0
2024-10-07 11:08:00-04:00,158.77000427246094,158.77000427246094,158.77000427246094,158.77000427246094,125,0.0,0.0
2024-10-07 11:10:00-04:00,158.6999969482422,158.6999969482422,158.6699981689453,158.6699981689453,540,0.0,0.0
2024-10-07 11:11:00-04:00,158.69000244140625,158.69000244140625,158.69000244140625,158.69000244140625,238,0.0,0.0
2024-10-07 11:13:00-04:00,158.69000244140625,158.6999969482422,158.69000244140625,158.6999969482422,777,0.0,0.0
2024-10-07 11:14:00-04:00,158.6199951171875,158.6199951171875,158.6199951171875,158.6199951171875,584,0.0,0.0
2024-10-07 11:22:00-04:00,158.60499572753906,158.60499572753906,158.60499572753906,158.60499572753906,936,0.0,0.0
2024-10-07 11:23:00-04:00,158.61500549316406,158.61500549316406,158.61500549316406,158.61500549316406,347,0.0,0.0
2024-10-07 11:24:00-04:00,158.5500030517578,158.5500030517578,158.50030517578125,158.50030517578125,451,0.0,0.0
2024-10-07 11:28:00-04:00,158.66000366210938,158.66000366210938,158.66000366210938,158.66000366210938,273,0.0,0.0
2024-10-07 11:30:00-04:00,158.52000427246094,158.52000427246094,158.52000427246094,158.52000427246094,414,0.0,0.0
2024-10-07 11:31:00-04:00,158.44500732421875,158.4499969482422,158.44500732421875,158.4499969482422,546,0.0,0.0
2024-10-07 11:32:00-04:00,158.42999267578125,158.47000122070312,158.42999267578125,158.47000122070312,1446,0.0,0.0
2024-10-07 11:40:00-04:00,158.50999450683594,158.50999450683594,158.50999450683594,158.50999450683594,207,0.0,0.0
2024-10-07 11:41:00-04:00,158.52000427246094,158.52000427246094,158.52000427246094,158.52000427246094,1364,0.0,0.0
2024-10-07 11:43:00-04:00,158.44000244140625,158.44000244140625,158.44000244140625,158.44000244140625,445,0.0,0.0
2024-10-07 11:44:00-04:00,158.5399932861328,158.5399932861328,158.5399932861328,158.5399932861328,293,0.0,0.0
2024-10-07 11:46:00-04:00,158.47999572753906,158.47999572753906,158.47999572753906,158.47999572753906,245,0.0,0.0
2024-10-07 11:48:00-04:00,158.49000549316406,158.49000549316406,158.42999267578125,158.42999267578125,384,0.0,0.0
2024-10-07 11:49:00-04:00,158.47500610351562,158.47500610351562,158.47500610351562,158.47500610351562,931,0.0,0.0
2024-10-07 11:54:00-04:00,158.3800048828125,158.3800048828125,158.2899932861328,158.2899932861328,898,0.0,0.0
2024-10-07 12:01:00-04:00,158.41000366210938,158.41000366210938,158.41000366210938,158.41000366210938,312,0.0,0.0
2024-10-07 12:04:00-04:00,158.41000366210938,158.41000366210938,158.41000366210938,158.41000366210938,284,0.0,0.0
2024-10-07 12:10:00-04:00,158.39999389648438,158.39999389648438,158.2899932861328,158.2899932861328,1561,0.0,0.0
2024-10-07 12:16:00-04:00,158.38999938964844,158.50999450683594,158.38999938964844,158.50999450683594,1245,0.0,0.0
2024-10-07 12:17:00-04:00,158.6199951171875,158.6199951171875,158.6199951171875,158.6199951171875,369,0.0,0.0
2024-10-07 12:24:00-04:00,158.55999755859375,158.55999755859375,158.55999755859375,158.55999755859375,269,0.0,0.0
2024-10-07 12:26:00-04:00,158.5800018310547,158.5800018310547,158.5800018310547,158.5800018310547,523,0.0,0.0
2024-10-07 12:34:00-04:00,158.57000732421875,158.57000732421875,158.57000732421875,158.57000732421875,707,0.0,0.0
2024-10-07 12:41:00-04:00,158.52999877929688,158.56500244140625,158.52999877929688,158.56500244140625,214,0.0,0.0
2024-10-07 12:42:00-04:00,158.52000427246094,158.52000427246094,158.52000427246094,158.52000427246094,281,0.0,0.0
2024-10-07 12:45:00-04:00,158.57000732421875,158.57000732421875,158.57000732421875,158.57000732421875,1757,0.0,0.0
2024-10-07 12:46:00-04:00,158.58999633789062,158.58999633789062,158.58999633789062,158.58999633789062,240,0.0,0.0
2024-10-07 12:48:00-04:00,158.6699981689453,158.75999450683594,158.6699981689453,158.6699981689453,1471,0.0,0.0
2024-10-07 12:51:00-04:00,158.88499450683594,158.88499450683594,158.88499450683594,158.88499450683594,646,0.0,0.0
2024-10-07 12:56:00-04:00,158.8000030517578,158.80999755859375,158.6999969482422,158.6999969482422,1072,0.0,0.0
2024-10-07 13:05:00-04:00,158.6999969482422,158.6999969482422,158.6999969482422,158.6999969482422,513,0.0,0.0
2024-10-07 13:11:00-04:00,158.60000610351562,158.60000610351562,158.60000610351562,158.60000610351562,285,0.0,0.0
2024-10-07 13:12:00-04:00,158.58999633789062,158.58999633789062,158.58999633789062,158.58999633789062,671,0.0,0.0
2024-10-07 13:17:00-04:00,158.6595001220703,158.6595001220703,158.6595001220703,158.6595001220703,288,0.0,0.0
2024-10-07 13:18:00-04:00,158.72999572753906,158.72999572753906,158.6699981689453,158.67999267578125,11019,0.0,0.0
2024-10-07 13:19:00-04:00,158.69000244140625,158.71499633789062,158.69000244140625,158.71499633789062,5760,0.0,0.0
2024-10-07 13:21:00-04:00,158.72999572753906,158.9149932861328,158.72999572753906,158.9149932861328,4950,0.0,0.0
2024-10-07 13:22:00-04:00,158.85000610351562,158.85000610351562,158.77000427246094,158.80499267578125,1839,0.0,0.0
2024-10-07 13:24:00-04:00,158.85000610351562,158.85000610351562,158.85000610351562,158.85000610351562,375,0.0,0.0
2024-10-07 13:25:00-04:00,158.8699951171875,158.8699951171875,158.8699951171875,158.8699951171875,196,0.0,0.0
2024-10-07 13:26:00-04:00,158.91000366210938,158.9149932861328,158.91000366210938,158.9149932861328,1099,0.0,0.0
2024-10-07 13:28:00-04:00,158.86000061035156,158.9600067138672,158.86000061035156,158.89999389648438,2520,0.0,0.0
2024-10-07 13:32:00-04:00,158.9199981689453,158.9199981689453,158.9199981689453,158.9199981689453,218,0.0,0.0
2024-10-07 13:34:00-04:00,158.93499755859375,158.93499755859375,158.93499755859375,158.93499755859375,223,0.0,0.0
2024-10-07 13:35:00-04:00,158.9250030517578,158.9250030517578,158.6240997314453,158.6240997314453,2093,0.0,0.0
2024-10-07 13:38:00-04:00,158.63499450683594,158.63499450683594,158.63499450683594,158.63499450683594,173,0.0,0.0
2024-10-07 13:40:00-04:00,158.6300048828125,158.6300048828125,158.6215057373047,158.6215057373047,519,0.0,0.0
2024-10-07 13:42:00-04:00,158.64999389648438,158.64999389648438,158.6199951171875,158.6199951171875,969,0.0,0.0
2024-10-07 13:46:00-04:00,158.34500122070312,158.34500122070312,158.34500122070312,158.34500122070312,282,0.0,0.0
2024-10-07 13:48:00-04:00,158.34500122070312,158.34500122070312,158.34500122070312,158.34500122070312,452,0.0,0.0
2024-10-07 13:53:00-04:00,158.25999450683594,158.25999450683594,158.25999450683594,158.25999450683594,161,0.0,0.0
2024-10-07 13:55:00-04:00,158.1199951171875,158.1199951171875,158.1199951171875,158.1199951171875,830,0.0,0.0
2024-10-07 14:04:00-04:00,158.07000732421875,158.07000732421875,158.00999450683594,158.00999450683594,338,0.0,0.0
2024-10-07 14:05:00-04:00,158.10499572753906,158.10499572753906,158.10499572753906,158.10499572753906,228,0.0,0.0
2024-10-07 14:07:00-04:00,158.1199951171875,158.1199951171875,158.1199951171875,158.1199951171875,267,0.0,0.0
2024-10-07 14:11:00-04:00,158.1999969482422,158.3699951171875,158.1999969482422,158.3699951171875,2653,0.0,0.0
2024-10-07 14:20:00-04:00,158.3300018310547,158.3300018310547,158.3300018310547,158.3300018310547,300,0.0,0.0
2024-10-07 14:24:00-04:00,158.27999877929688,158.27999877929688,158.27999877929688,158.27999877929688,306,0.0,0.0
2024-10-07 14:26:00-04:00,158.3000030517578,158.3000030517578,158.3000030517578,158.3000030517578,285,0.0,0.0
2024-10-07 14:28:00-04:00,158.25,158.25,158.25,158.25,494,0.0,0.0
2024-10-07 14:30:00-04:00,158.27999877929688,158.27999877929688,158.07749938964844,158.25,4355,0.0,0.0
2024-10-07 14:31:00-04:00,158.27999877929688,158.27999877929688,158.27499389648438,158.27499389648438,693,0.0,0.0
2024-10-07 14:35:00-04:00,158.28500366210938,158.28500366210938,158.28500366210938,158.28500366210938,253,0.0,0.0
2024-10-07 14:39:00-04:00,158.27999877929688,158.27999877929688,158.27999877929688,158.27999877929688,210,0.0,0.0
2024-10-07 14:41:00-04:00,158.30499267578125,158.30999755859375,158.27999877929688,158.30999755859375,1113,0.0,0.0
2024-10-07 14:42:00-04:00,158.30999755859375,158.30999755859375,158.30999755859375,158.30999755859375,292,0.0,0.0
2024-10-07 14:43:00-04:00,158.30999755859375,158.30999755859375,158.30999755859375,158.30999755859375,176,0.0,0.0
2024-10-07 14:44:00-04:00,158.30999755859375,158.30999755859375,158.3000030517578,158.30999755859375,1097,0.0,0.0
2024-10-07 14:45:00-04:00,158.30999755859375,158.30999755859375,158.30999755859375,158.30999755859375,101,0.0,0.0
2024-10-07 14:46:00-04:00,158.30999755859375,158.30999755859375,158.30999755859375,158.30999755859375,527,0.0,0.0
2024-10-07 14:47:00-04:00,158.3800048828125,158.3800048828125,158.3699951171875,158.3800048828125,4463,0.0,0.0
2024-10-07 14:48:00-04:00,158.31500244140625,158.3699951171875,158.3000030517578,158.3000030517578,935,0.0,0.0
2024-10-07 14:49:00-04:00,158.3000030517578,158.3000030517578,158.21499633789062,158.21499633789062,738,0.0,0.0
2024-10-07 14:50:00-04:00,158.14999389648438,158.14999389648438,158.14999389648438,158.14999389648438,208,0.0,0.0
2024-10-07 14:52:00-04:00,158.1199951171875,158.1199951171875,158.1199951171875,158.1199951171875,371,0.0,0.0
2024-10-07 14:53:00-04:00,158.16000366210938,158.17999267578125,158.16000366210938,158.17999267578125,236,0.0,0.0
2024-10-07 14:54:00-04:00,158.19000244140625,158.22000122070312,158.19000244140625,158.1999969482422,1104,0.0,0.0
2024-10-07 14:56:00-04:00,158.22999572753906,158.25999450683594,158.22999572753906,158.25999450683594,499,0.0,0.0
2024-10-07 14:57:00-04:00,158.25999450683594,158.2899932861328,158.22000122070312,158.22000122070312,1204,0.0,0.0
2024-10-07 14:58:00-04:00,158.22000122070312,158.22000122070312,158.22000122070312,158.22000122070312,971,0.0,0.0
2024-10-07 15:05:00-04:00,158.22500610351562,158.22500610351562,158.22500610351562,158.22500610351562,255,0.0,0.0
2024-10-07 15:07:00-04:00,158.30999755859375,158.3300018310547,158.3000030517578,158.3249969482422,1067,0.0,0.0
2024-10-07 15:08:00-04:00,158.3249969482422,158.3249969482422,158.3249969482422,158.3249969482422,153,0.0,0.0
2024-10-07 15:10:00-04:00,158.32000732421875,158.32000732421875,158.32000732421875,158.32000732421875,640,0.0,0.0
2024-10-07 15:14:00-04:00,158.3249969482422,158.3249969482422,158.3249969482422,158.3249969482422,365,0.0,0.0
2024-10-07 15:16:00-04:00,158.25,158.27000427246094,158.25,158.27000427246094,1578,0.0,0.0
2024-10-07 15:21:00-04:00,158.16000366210938,158.19500732421875,158.16000366210938,158.19500732421875,439,0.0,0.0
2024-10-07 15:22:00-04:00,158.2899932861328,158.35499572753906,158.2899932861328,158.35499572753906,2707,0.0,0.0
2024-10-07 15:25:00-04:00,158.47000122070312,158.47000122070312,158.47000122070312,158.47000122070312,1265,0.0,0.0
2024-10-07 15:28:00-04:00,158.44000244140625,158.44000244140625,158.44000244140625,158.44000244140625,330,0.0,0.0
2024-10-07 15:30:00-04:00,158.38999938964844,158.38999938964844,158.38999938964844,158.38999938964844,380,0.0,0.0
2024-10-07 15:32:00-04:00,158.33999633789062,158.39999389648438,158.33999633789062,158.39999389648438,385,0.0,0.0
2024-10-07 15:33:00-04:00,158.3300018310547,158.35000610351562,158.3300018310547,158.35000610351562,1077,0.0,0.0
2024-10-07 15:34:00-04:00,158.32000732421875,158.32000732421875,158.32000732421875,158.32000732421875,255,0.0,0.0
2024-10-07 15:35:00-04:00,158.3300018310547,158.3300018310547,158.22000122070312,158.22000122070312,525,0.0,0.0
2024-10-07 15:36:00-04:00,158.3000030517578,158.30999755859375,158.3000030517578,158.30999755859375,463,0.0,0.0
2024-10-07 15:38:00-04:00,158.3249969482422,158.40989685058594,158.3249969482422,158.40989685058594,763,0.0,0.0
2024-10-07 15:40:00-04:00,158.3300018310547,158.3300018310547,158.25,158.25,784,0.0,0.0
2024-10-07 15:42:00-04:00,158.33999633789062,158.41000366210938,158.33999633789062,158.41000366210938,1785,0.0,0.0
2024-10-07 15:43:00-04:00,158.41000366210938,158.41000366210938,158.41000366210938,158.41000366210938,656,0.0,0.0
2024-10-07 15:44:00-04:00,158.4499969482422,158.4499969482422,158.42999267578125,158.42999267578125,339,0.0,0.0
2024-10-07 15:45:00-04:00,158.50999450683594,158.76499938964844,158.50999450683594,158.60000610351562,2394,0.0,0.0
2024-10-07 15:47:00-04:00,158.72999572753906,158.77000427246094,158.72999572753906,158.77000427246094,927,0.0,0.0
2024-10-07 15:48:00-04:00,158.73500061035156,158.73500061035156,158.73500061035156,158.73500061035156,755,0.0,0.0
2024-10-07 15:49:00-04:00,158.75999450683594,158.90499877929688,158.75999450683594,158.8300018310547,1830,0.0,0.0
2024-10-07 15:50:00-04:00,158.8800048828125,158.8800048828125,158.86000061035156,158.86000061035156,1432,0.0,0.0
2024-10-07 15:51:00-04:00,158.89500427246094,158.9499969482422,158.89500427246094,158.9499969482422,1441,0.0,0.0
2024-10-07 15:52:00-04:00,159.00999450683594,159.01499938964844,159.00999450683594,159.01499938964844,579,0.0,0.0
2024-10-07 15:53:00-04:00,159.00999450683594,159.1300048828125,159.00999450683594,159.10000610351562,3772,0.0,0.0
2024-10-07 15:55:00-04:00,159.02999877929688,159.02999877929688,159.02999877929688,159.02999877929688,1592,0.0,0.0
2024-10-07 15:56:00-04:00,159.0,159.05999755859375,158.8350067138672,158.8350067138672,6031,0.0,0.0
2024-10-07 15:57:00-04:00,158.86000061035156,158.86000061035156,158.80499267578125,158.80499267578125,2962,0.0,0.0
2024-10-07 15:58:00-04:00,158.8000030517578,158.86000061035156,158.75999450683594,158.75999450683594,3573,0.0,0.0
2024-10-07 15:59:00-04:00,158.74000549316406,158.74000549316406,158.61000061035156,158.61000061035156,7602,0.0,0.0
2024-10-08 09:30:00-04:00,158.27999877929688,158.4949951171875,158.27999877929688,158.4949951171875,2088,0.0,0.0
2024-10-08 09:37:00-04:00,158.80999755859375,158.80999755859375,158.80999755859375,158.80999755859375,102,0.0,0.0
2024-10-08 09:38:00-04:00,158.0050048828125,158.0050048828125,158.0050048828125,158.0050048828125,104,0.0,0.0
2024-10-08 09:39:00-04:00,157.38999938964844,157.38999938964844,157.38999938964844,157.38999938964844,835,0.0,0.0
2024-10-08 09:42:00-04:00,158.09500122070312,158.09500122070312,158.09500122070312,158.09500122070312,106,0.0,0.0
2024-10-08 09:43:00-04:00,157.9199981689453,157.9199981689453,157.9199981689453,157.9199981689453,351,0.0,0.0
2024-10-08 09:44:00-04:00,157.8800048828125,157.8800048828125,157.67320251464844,157.67320251464844,616,0.0,0.0
2024-10-08 09:46:00-04:00,157.94000244140625,157.94000244140625,157.94000244140625,157.94000244140625,1403,0.0,0.0
2024-10-08 09:55:00-04:00,157.77000427246094,157.77000427246094,157.77000427246094,157.77000427246094,415,0.0,0.0
2024-10-08 09:56:00-04:00,157.77000427246094,157.77000427246094,157.6999969482422,157.6999969482422,1169,0.0,0.0
2024-10-08 10:00:00-04:00,157.72999572753906,157.80999755859375,157.60000610351562,157.60000610351562,1553,0.0,0.0
2024-10-08 10:01:00-04:00,157.74000549316406,157.74000549316406,157.57000732421875,157.57000732421875,998,0.0,0.0
2024-10-08 10:04:00-04:00,157.59500122070312,157.64500427246094,157.59500122070312,157.64500427246094,970,0.0,0.0
2024-10-08 10:05:00-04:00,157.6999969482422,157.6999969482422,157.6999969482422,157.6999969482422,333,0.0,0.0
2024-10-08 10:07:00-04:00,157.47999572753906,157.5800018310547,157.4600067138672,157.5800018310547,1024,0.0,0.0
2024-10-08 10:11:00-04:00,157.55499267578125,157.55499267578125,157.55499267578125,157.55499267578125,494,0.0,0.0
2024-10-08 10:16:00-04:00,157.19000244140625,157.19000244140625,157.13999938964844,157.13999938964844,349,0.0,0.0
2024-10-08 10:17:00-04:00,157.28500366210938,157.44000244140625,157.28500366210938,157.35499572753906,2244,0.0,0.0
2024-10-08 10:19:00-04:00,157.5,157.5,157.44000244140625,157.5,1125,0.0,0.0
2024-10-08 10:20:00-04:00,157.4149932861328,157.4149932861328,157.4149932861328,157.4149932861328,478,0.0,0.0
2024-10-08 10:25:00-04:00,157.4149932861328,157.4149932861328,157.1300048828125,157.1300048828125,3269,0.0,0.0
2024-10-08 10:26:00-04:00,157.5,157.5,157.44000244140625,157.44000244140625,989,0.0,0.0
2024-10-08 10:35:00-04:00,157.28500366210938,157.28500366210938,157.11000061035156,157.11000061035156,974,0.0,0.0
2024-10-08 10:38:00-04:00,157.10000610351562,157.10000610351562,157.10000610351562,157.10000610351562,348,0.0,0.0
2024-10-08 10:39:00-04:00,157.15499877929688,157.4250030517578,157.1199951171875,157.4250030517578,4351,0.0,0.0
2024-10-08 10:42:00-04:00,157.44000244140625,157.57000732421875,157.4199981689453,157.57000732421875,1719,0.0,0.0
2024-10-08 10:43:00-04:00,157.6699981689453,157.6699981689453,157.42999267578125,157.44000244140625,1803,0.0,0.0
2024-10-08 10:44:00-04:00,157.44000244140625,157.44000244140625,157.44000244140625,157.44000244140625,373,0.0,0.0
2024-10-08 10:46:00-04:00,157.4600067138672,157.4600067138672,157.4600067138672,157.4600067138672,117,0.0,0.0
2024-10-08 10:48:00-04:00,157.57000732421875,157.57000732421875,157.57000732421875,157.57000732421875,836,0.0,0.0
2024-10-08 11:02:00-04:00,157.64999389648438,157.64999389648438,157.64999389648438,157.64999389648438,633,0.0,0.0
2024-10-08 11:03:00-04:00,157.63499450683594,157.63499450683594,157.63499450683594,157.63499450683594,100,0.0,0.0
2024-10-08 11:04:00-04:00,157.63499450683594,157.63499450683594,157.58999633789062,157.60000610351562,1066,0.0,0.0
2024-10-08 11:07:00-04:00,157.60499572753906,157.60499572753906,157.60499572753906,157.60499572753906,104,0.0,0.0
2024-10-08 11:09:00-04:00,157.60499572753906,157.60499572753906,157.60499572753906,157.60499572753906,933,0.0,0.0
2024-10-08 11:10:00-04:00,157.75,157.99000549316406,157.67999267578125,157.97500610351562,2115,0.0,0.0
2024-10-08 11:11:00-04:00,157.83999633789062,157.83999633789062,157.83999633789062,157.83999633789062,666,0.0,0.0
2024-10-08 11:24:00-04:00,157.83999633789062,157.83999633789062,157.83999633789062,157.83999633789062,503,0.0,0.0
2024-10-08 11:25:00-04:00,157.97500610351562,157.97500610351562,157.97500610351562,157.97500610351562,293,0.0,0.0
2024-10-08 11:26:00-04:00,157.94000244140625,158.00999450683594,157.94000244140625,158.00999450683594,659,0.0,0.0
2024-10-08 11:27:00-04:00,157.97999572753906,158.00999450683594,157.94500732421875,158.00999450683594,863,0.0,0.0
2024-10-08 11:29:00-04:00,157.9600067138672,157.9600067138672,157.9600067138672,157.9600067138672,685,0.0,0.0
2024-10-08 11:32:00-04:00,158.08999633789062,158.08999633789062,158.08999633789062,158.08999633789062,1041,0.0,0.0
2024-10-08 11:34:00-04:00,157.97999572753906,157.97999572753906,157.97999572753906,157.97999572753906,468,0.0,0.0
2024-10-08 11:40:00-04:00,158.07000732421875,158.07000732421875,158.07000732421875,158.07000732421875,644,0.0,0.0
2024-10-08 11:42:00-04:00,158.09500122070312,158.09500122070312,158.09500122070312,158.09500122070312,540,0.0,0.0
2024-10-08 11:44:00-04:00,158.02000427246094,158.02000427246094,158.0,158.0050048828125,1455,0.0,0.0
2024-10-08 11:52:00-04:00,157.97000122070312,157.97000122070312,157.97000122070312,157.97000122070312,1094,0.0,0.0
2024-10-08 11:53:00-04:00,158.11000061035156,158.11000061035156,158.11000061035156,158.11000061035156,100,0.0,0.0
2024-10-08 11:54:00-04:00,158.1699981689453,158.1699981689453,158.02000427246094,158.13999938964844,3447,0.0,0.0
2024-10-08 11:55:00-04:00,158.00999450683594,158.00999450683594,158.00999450683594,158.00999450683594,447,0.0,0.0
2024-10-08 11:56:00-04:00,158.08999633789062,158.1699981689453,158.08999633789062,158.1699981689453,1200,0.0,0.0
2024-10-08 12:02:00-04:00,158.2899932861328,158.2899932861328,158.2899932861328,158.2899932861328,372,0.0,0.0
2024-10-08 12:03:00-04:00,158.33999633789062,158.35499572753906,158.33999633789062,158.35499572753906,433,0.0,0.0
2024-10-08 12:04:00-04:00,158.3000030517578,158.30999755859375,158.2899932861328,158.2899932861328,421,0.0,0.0
2024-10-08 12:05:00-04:00,158.2899932861328,158.2899932861328,158.2899932861328,158.2899932861328,101,0.0,0.0
2024-10-08 12:06:00-04:00,158.28500366210938,158.3881072998047,158.28500366210938,158.3881072998047,3153,0.0,0.0
2024-10-08 12:10:00-04:00,158.38999938964844,158.38999938964844,158.38999938964844,158.38999938964844,776,0.0,0.0
2024-10-08 12:15:00-04:00,158.3300018310547,158.3300018310547,158.32000732421875,158.3300018310547,1285,0.0,0.0
2024-10-08 12:16:00-04:00,158.36500549316406,158.3800048828125,158.36500549316406,158.36500549316406,1489,0.0,0.0
2024-10-08 12:24:00-04:00,158.27000427246094,158.27000427246094,158.27000427246094,158.27000427246094,405,0.0,0.0
2024-10-08 12:25:00-04:00,158.33999633789062,158.33999633789062,158.33999633789062,158.33999633789062,649,0.0,0.0
2024-10-08 12:33:00-04:00,158.4199981689453,158.49000549316406,158.4199981689453,158.47500610351562,1959,0.0,0.0
2024-10-08 12:35:00-04:00,158.47999572753906,158.47999572753906,158.47999572753906,158.47999572753906,381,0.0,0.0
2024-10-08 12:36:00-04:00,158.47999572753906,158.47999572753906,158.47999572753906,158.47999572753906,702,0.0,0.0
2024-10-08 12:37:00-04:00,158.47999572753906,158.47999572753906,158.47999572753906,158.47999572753906,169,0.0,0.0
2024-10-08 12:38:00-04:00,158.47999572753906,158.47999572753906,158.47999572753906,158.47999572753906,125,0.0,0.0
2024-10-08 12:39:00-04:00,158.47999572753906,158.47999572753906,158.47999572753906,158.47999572753906,208,0.0,0.0
2024-10-08 12:43:00-04:00,158.47999572753906,158.47999572753906,158.47000122070312,158.47999572753906,1886,0.0,0.0
2024-10-08 12:44:00-04:00,158.5500030517578,158.58999633789062,158.5449981689453,158.5500030517578,2615,0.0,0.0
2024-10-08 12:46:00-04:00,158.69000244140625,158.6999969482422,158.69000244140625,158.6999969482422,648,0.0,0.0
2024-10-08 12:48:00-04:00,158.67999267578125,158.67999267578125,158.67999267578125,158.67999267578125,261,0.0,0.0
2024-10-08 12:49:00-04:00,158.58999633789062,158.58999633789062,158.58999633789062,158.58999633789062,636,0.0,0.0
2024-10-08 12:56:00-04:00,158.39999389648438,158.39999389648438,158.39999389648438,158.39999389648438,184,0.0,0.0
2024-10-08 12:57:00-04:00,158.39999389648438,158.39999389648438,158.30999755859375,158.30999755859375,1080,0.0,0.0
2024-10-08 13:03:00-04:00,158.41250610351562,158.41250610351562,158.41000366210938,158.41000366210938,630,0.0,0.0
2024-10-08 13:09:00-04:00,158.2899932861328,158.2899932861328,158.2899932861328,158.2899932861328,313,0.0,0.0
2024-10-08 13:11:00-04:00,158.14999389648438,158.14999389648438,158.14999389648438,158.14999389648438,268,0.0,0.0
2024-10-08 13:13:00-04:00,158.27000427246094,158.27000427246094,158.1199951171875,158.1199951171875,329,0.0,0.0
2024-10-08 13:14:00-04:00,158.41000366210938,158.41000366210938,158.41000366210938,158.41000366210938,482,0.0,0.0
2024-10-08 13:17:00-04:00,158.3300018310547,158.3300018310547,158.3300018310547,158.3300018310547,302,0.0,0.0
2024-10-08 13:18:00-04:00,158.22500610351562,158.22500610351562,158.22500610351562,158.22500610351562,131,0.0,0.0
2024-10-08 13:19:00-04:00,158.22500610351562,158.23500061035156,158.22500610351562,158.23500061035156,1478,0.0,0.0
2024-10-08 13:20:00-04:00,158.22999572753906,158.22999572753906,158.22999572753906,158.22999572753906,211,0.0,0.0
2024-10-08 13:23:00-04:00,158.13999938964844,158.13999938964844,158.13999938964844,158.13999938964844,303,0.0,0.0
2024-10-08 13:24:00-04:00,158.17999267578125,158.17999267578125,158.17999267578125,158.17999267578125,743,0.0,0.0
2024-10-08 13:27:00-04:00,158.30999755859375,158.30999755859375,158.25999450683594,158.25999450683594,1982,0.0,0.0
2024-10-08 13:33:00-04:00,158.1999969482422,158.1999969482422,158.1999969482422,158.1999969482422,219,0.0,0.0
2024-10-08 13:36:00-04:00,158.19000244140625,158.19000244140625,158.19000244140625,158.19000244140625,220,0.0,0.0
2024-10-08 13:37:00-04:00,158.19000244140625,158.19000244140625,158.19000244140625,158.19000244140625,539,0.0,0.0
2024-10-08 13:38:00-04:00,158.16000366210938,158.16000366210938,158.00999450683594,158.00999450683594,1150,0.0,0.0
2024-10-08 13:39:00-04:00,158.08999633789062,158.08999633789062,158.08999633789062,158.08999633789062,811,0.0,0.0
2024-10-08 13:40:00-04:00,158.0749969482422,158.0749969482422,158.0749969482422,158.0749969482422,472,0.0,0.0
2024-10-08 13:41:00-04:00,158.10000610351562,158.10000610351562,158.10000610351562,158.10000610351562,400,0.0,0.0
2024-10-08 13:44:00-04:00,158.0800018310547,158.0800018310547,158.0800018310547,158.0800018310547,481,0.0,0.0
2024-10-08 13:47:00-04:00,158.1300048828125,158.25,158.1300048828125,158.13999938964844,1638,0.0,0.0
2024-10-08 13:55:00-04:00,158.1699981689453,158.1699981689453,158.1699981689453,158.1699981689453,1137,0.0,0.0
2024-10-08 14:08:00-04:00,158.38999938964844,158.4149932861328,158.38999938964844,158.4149932861328,1411,0.0,0.0
2024-10-08 14:10:00-04:00,158.3699951171875,158.39999389648438,158.3699951171875,158.39999389648438,732,0.0,0.0
2024-10-08 14:17:00-04:00,158.42999267578125,158.42999267578125,158.42999267578125,158.42999267578125,722,0.0,0.0
2024-10-08 14:23:00-04:00,158.39999389648438,158.39999389648438,158.39999389648438,158.39999389648438,1038,0.0,0.0
2024-10-08 14:30:00-04:00,158.4499969482422,158.4499969482422,158.4499969482422,158.4499969482422,539,0.0,0.0
2024-10-08 14:33:00-04:00,158.49000549316406,158.49000549316406,158.46499633789062,158.46499633789062,410,0.0,0.0
2024-10-08 14:35:00-04:00,158.47500610351562,158.50999450683594,158.47500610351562,158.47500610351562,1314,0.0,0.0
2024-10-08 14:36:00-04:00,158.5500030517578,158.5500030517578,158.5500030517578,158.5500030517578,346,0.0,0.0
2024-10-08 14:37:00-04:00,158.55999755859375,158.7899932861328,158.55999755859375,158.7899932861328,958,0.0,0.0
2024-10-08 14:38:00-04:00,158.7100067138672,158.75,158.6999969482422,158.75,1372,0.0,0.0
2024-10-08 14:40:00-04:00,158.72999572753906,158.85000610351562,158.72999572753906,158.85000610351562,791,0.0,0.0
2024-10-08 14:46:00-04:00,158.7899932861328,158.7899932861328,158.73480224609375,158.7899932861328,432,0.0,0.0
2024-10-08 14:47:00-04:00,158.8300018310547,158.8699951171875,158.8300018310547,158.8699951171875,1273,0.0,0.0
2024-10-08 14:50:00-04:00,158.89999389648438,158.89999389648438,158.89999389648438,158.89999389648438,442,0.0,0.0
2024-10-08 14:51:00-04:00,158.89639282226562,158.91000366210938,158.89639282226562,158.91000366210938,1181,0.0,0.0
2024-10-08 14:56:00-04:00,158.92999267578125,158.92999267578125,158.92999267578125,158.92999267578125,205,0.0,0.0
2024-10-08 14:57:00-04:00,158.9499969482422,159.00999450683594,158.9499969482422,159.00999450683594,1146,0.0,0.0
2024-10-08 14:58:00-04:00,159.0,159.00999450683594,159.0,159.00999450683594,835,0.0,0.0
2024-10-08 15:02:00-04:00,158.99000549316406,158.99000549316406,158.8800048828125,158.8800048828125,1263,0.0,0.0
2024-10-08 15:03:00-04:00,158.91000366210938,158.91000366210938,158.91000366210938,158.91000366210938,344,0.0,0.0
2024-10-08 15:08:00-04:00,158.80999755859375,158.80999755859375,158.80999755859375,158.80999755859375,462,0.0,0.0
2024-10-08 15:09:00-04:00,158.92999267578125,158.92999267578125,158.92999267578125,158.92999267578125,447,0.0,0.0
2024-10-08 15:10:00-04:00,158.9499969482422,158.9499969482422,158.9499969482422,158.9499969482422,576,0.0,0.0
2024-10-08 15:12:00-04:00,159.02000427246094,159.02000427246094,159.02000427246094,159.02000427246094,168,0.0,0.0
2024-10-08 15:13:00-04:00,158.99000549316406,158.99000549316406,158.99000549316406,158.99000549316406,390,0.0,0.0
2024-10-08 15:15:00-04:00,158.9499969482422,158.9499969482422,158.9499969482422,158.9499969482422,666,0.0,0.0
2024-10-08 15:19:00-04:00,158.9499969482422,158.9499969482422,158.9499969482422,158.9499969482422,595,0.0,0.0
2024-10-08 15:21:00-04:00,158.9499969482422,158.9499969482422,158.9499969482422,158.9499969482422,432,0.0,0.0
2024-10-08 15:22:00-04:00,158.88999938964844,158.88999938964844,158.86000061035156,158.86000061035156,744,0.0,0.0
2024-10-08 15:24:00-04:00,158.82000732421875,158.82000732421875,158.82000732421875,158.82000732421875,340,0.0,0.0
2024-10-08 15:25:00-04:00,158.77999877929688,158.77999877929688,158.74000549316406,158.74000549316406,1278,0.0,0.0
2024-10-08 15:28:00-04:00,158.6999969482422,158.80999755859375,158.6999969482422,158.80999755859375,1412,0.0,0.0
2024-10-08 15:29:00-04:00,158.8249969482422,158.92300415039062,158.8249969482422,158.89395141601562,2069,0.0,0.0
2024-10-08 15:31:00-04:00,158.83999633789062,158.84500122070312,158.83999633789062,158.84500122070312,866,0.0,0.0
2024-10-08 15:32:00-04:00,158.85000610351562,158.85000610351562,158.85000610351562,158.85000610351562,381,0.0,0.0
2024-10-08 15:34:00-04:00,158.8800048828125,158.8800048828125,158.8800048828125,158.8800048828125,356,0.0,0.0
2024-10-08 15:35:00-04:00,158.88999938964844,159.00999450683594,158.8800048828125,159.00999450683594,1398,0.0,0.0
2024-10-08 15:36:00-04:00,158.97999572753906,158.97999572753906,158.97999572753906,158.97999572753906,1215,0.0,0.0
2024-10-08 15:40:00-04:00,158.99000549316406,158.99000549316406,158.99000549316406,158.99000549316406,919,0.0,0.0
2024-10-08 15:41:00-04:00,158.9550018310547,158.9550018310547,158.9550018310547,158.9550018310547,647,0.0,0.0
2024-10-08 15:43:00-04:00,158.9199981689453,158.9199981689453,158.91000366210938,158.91000366210938,969,0.0,0.0
2024-10-08 15:44:00-04:00,158.9199981689453,159.02000427246094,158.9199981689453,159.02000427246094,1663,0.0,0.0
2024-10-08 15:45:00-04:00,158.94000244140625,158.98500061035156,158.91000366210938,158.92999267578125,1302,0.0,0.0
2024-10-08 15:46:00-04:00,158.89999389648438,158.89999389648438,158.8000030517578,158.8000030517578,906,0.0,0.0
2024-10-08 15:47:00-04:00,158.85499572753906,158.85499572753906,158.8000030517578,158.8000030517578,525,0.0,0.0
2024-10-08 15:48:00-04:00,158.85499572753906,158.85499572753906,158.85499572753906,158.85499572753906,133,0.0,0.0
2024-10-08 15:49:00-04:00,158.8249969482422,158.86000061035156,158.8249969482422,158.86000061035156,1470,0.0,0.0
2024-10-08 15:50:00-04:00,158.80999755859375,158.83999633789062,158.8000030517578,158.83999633789062,2621,0.0,0.0
2024-10-08 15:51:00-04:00,158.8000030517578,158.8300018310547,158.8000030517578,158.80999755859375,686,0.0,0.0
2024-10-08 15:52:00-04:00,158.8000030517578,158.92999267578125,158.8000030517578,158.88999938964844,4735,0.0,0.0
2024-10-08 15:53:00-04:00,158.94000244140625,158.94000244140625,158.94000244140625,158.94000244140625,538,0.0,0.0
2024-10-08 15:54:00-04:00,158.94000244140625,159.02000427246094,158.94000244140625,158.97500610351562,1643,0.0,0.0
2024-10-08 15:55:00-04:00,158.94000244140625,159.02000427246094,158.94000244140625,159.02000427246094,2575,0.0,0.0
2024-10-08 15:56:00-04:00,159.0050048828125,159.0050048828125,158.9499969482422,158.9499969482422,1586,0.0,0.0
2024-10-08 15:57:00-04:00,158.86000061035156,158.8699951171875,158.8000030517578,158.8699951171875,3678,0.0,0.0
2024-10-08 15:58:00-04:00,158.80999755859375,158.80999755859375,158.72999572753906,158.7899932861328,3648,0.0,0.0
2024-10-08 15:59:00-04:00,158.72999572753906,158.72999572753906,158.5399932861328,158.55999755859375,11621,0.0,0.0
2024-10-09 09:30:00-04:00,158.35000610351562,158.35000610351562,158.35000610351562,158.35000610351562,965,0.0,0.0
2024-10-09 09:36:00-04:00,158.1199951171875,158.1199951171875,158.1199951171875,158.1199951171875,220,0.0,0.0
2024-10-09 09:42:00-04:00,159.0800018310547,159.0800018310547,159.0800018310547,159.0800018310547,557,0.0,0.0
2024-10-09 09:43:00-04:00,159.0800018310547,159.0800018310547,159.0800018310547,159.0800018310547,519,0.0,0.0
2024-10-09 09:53:00-04:00,159.1199951171875,159.27999877929688,159.1199951171875,159.27499389648438,1423,0.0,0.0
2024-10-09 10:00:00-04:00,159.41000366210938,159.41000366210938,159.41000366210938,159.41000366210938,654,0.0,0.0
2024-10-09 10:06:00-04:00,159.2899932861328,159.33999633789062,159.2449951171875,159.33999633789062,2460,0.0,0.0
2024-10-09 10:07:00-04:00,159.02999877929688,159.4199981689453,159.02999877929688,159.4199981689453,810,0.0,0.0
2024-10-09 10:08:00-04:00,159.47000122070312,159.47000122070312,159.47000122070312,159.47000122070312,355,0.0,0.0
2024-10-09 10:09:00-04:00,159.44000244140625,159.44000244140625,159.44000244140625,159.44000244140625,247,0.0,0.0
2024-10-09 10:12:00-04:00,159.38999938964844,159.38999938964844,159.38999938964844,159.38999938964844,264,0.0,0.0
2024-10-09 10:17:00-04:00,159.33999633789062,159.33999633789062,159.33999633789062,159.33999633789062,205,0.0,0.0
2024-10-09 10:18:00-04:00,159.22000122070312,159.22000122070312,159.22000122070312,159.22000122070312,158,0.0,0.0
2024-10-09 10:19:00-04:00,159.2050018310547,159.2050018310547,159.2050018310547,159.2050018310547,160,0.0,0.0
2024-10-09 10:20:00-04:00,159.02999877929688,159.1999969482422,159.02999877929688,159.1999969482422,302,0.0,0.0
2024-10-09 10:23:00-04:00,159.2050018310547,159.2050018310547,159.2050018310547,159.2050018310547,437,0.0,0.0
2024-10-09 10:24:00-04:00,159.1999969482422,159.1999969482422,159.1999969482422,159.1999969482422,507,0.0,0.0
2024-10-09 10:29:00-04:00,159.02999877929688,159.02999877929688,159.02999877929688,159.02999877929688,402,0.0,0.0
2024-10-09 10:33:00-04:00,159.02999877929688,159.02999877929688,158.88999938964844,158.88999938964844,1071,0.0,0.0
2024-10-09 10:34:00-04:00,158.8300018310547,158.8300018310547,158.8300018310547,158.8300018310547,478,0.0,0.0
2024-10-09 10:37:00-04:00,158.9499969482422,159.00999450683594,158.9499969482422,159.00999450683594,1220,0.0,0.0
2024-10-09 10:38:00-04:00,158.98500061035156,158.98500061035156,158.98500061035156,158.98500061035156,233,0.0,0.0
2024-10-09 10:42:00-04:00,158.98500061035156,158.98500061035156,158.98500061035156,158.98500061035156,237,0.0,0.0
2024-10-09 10:43:00-04:00,158.98500061035156,158.98500061035156,158.98500061035156,158.98500061035156,309,0.0,0.0
2024-10-09 10:47:00-04:00,159.0800018310547,159.0800018310547,159.0800018310547,159.0800018310547,487,0.0,0.0
2024-10-09 10:49:00-04:00,159.10000610351562,159.10000610351562,158.98500061035156,158.98500061035156,1140,0.0,0.0
2024-10-09 10:50:00-04:00,158.99000549316406,158.99000549316406,158.99000549316406,158.99000549316406,207,0.0,0.0
2024-10-09 10:51:00-04:00,159.0800018310547,159.0800018310547,159.0800018310547,159.0800018310547,169,0.0,0.0
2024-10-09 10:52:00-04:00,159.02999877929688,159.02999877929688,159.02999877929688,159.02999877929688,121,0.0,0.0
2024-10-09 10:54:00-04:00,159.0800018310547,159.0800018310547,159.0800018310547,159.0800018310547,464,0.0,0.0
2024-10-09 10:55:00-04:00,159.0800018310547,159.0800018310547,159.0500030517578,159.0500030517578,1200,0.0,0.0
2024-10-09 10:56:00-04:00,159.1199951171875,159.1199951171875,159.1199951171875,159.1199951171875,477,0.0,0.0
2024-10-09 10:57:00-04:00,159.1699981689453,159.1699981689453,159.1699981689453,159.1699981689453,297,0.0,0.0
2024-10-09 11:01:00-04:00,159.1999969482422,159.1999969482422,159.1999969482422,159.1999969482422,358,0.0,0.0
2024-10-09 11:03:00-04:00,159.25999450683594,159.27000427246094,159.25999450683594,159.27000427246094,491,0.0,0.0
2024-10-09 11:06:00-04:00,159.32000732421875,159.32000732421875,159.30999755859375,159.30999755859375,1146,0.0,0.0
2024-10-09 11:10:00-04:00,159.41000366210938,159.41000366210938,159.41000366210938,159.41000366210938,537,0.0,0.0
2024-10-09 11:20:00-04:00,159.44000244140625,159.44000244140625,159.44000244140625,159.44000244140625,372,0.0,0.0
2024-10-09 11:21:00-04:00,159.4499969482422,159.4499969482422,159.4499969482422,159.4499969482422,464,0.0,0.0
2024-10-09 11:22:00-04:00,159.52999877929688,159.6300048828125,159.52999877929688,159.6300048828125,1417,0.0,0.0
2024-10-09 11:25:00-04:00,159.50999450683594,159.52000427246094,159.50999450683594,159.52000427246094,624,0.0,0.0
2024-10-09 11:26:00-04:00,159.3699951171875,159.3699951171875,159.3300018310547,159.3300018310547,942,0.0,0.0
2024-10-09 11:37:00-04:00,159.4550018310547,159.4550018310547,159.39999389648438,159.39999389648438,1177,0.0,0.0
2024-10-09 11:38:00-04:00,159.4346923828125,159.4346923828125,159.4346923828125,159.4346923828125,173,0.0,0.0
2024-10-09 11:39:00-04:00,159.43499755859375,159.43499755859375,159.43499755859375,159.43499755859375,717,0.0,0.0
2024-10-09 11:40:00-04:00,159.43499755859375,159.43499755859375,159.43499755859375,159.43499755859375,732,0.0,0.0
2024-10-09 11:41:00-04:00,159.50999450683594,159.5399932861328,159.50999450683594,159.5399932861328,596,0.0,0.0
2024-10-09 11:42:00-04:00,159.57000732421875,159.57000732421875,159.57000732421875,159.57000732421875,269,0.0,0.0
2024-10-09 11:46:00-04:00,159.51499938964844,159.58999633789062,159.51499938964844,159.58999633789062,1158,0.0,0.0
2024-10-09 11:47:00-04:00,159.61000061035156,159.61000061035156,159.61000061035156,159.61000061035156,539,0.0,0.0
2024-10-09 11:48:00-04:00,159.73500061035156,159.73500061035156,159.73500061035156,159.73500061035156,805,0.0,0.0
2024-10-09 11:49:00-04:00,159.75,159.75,159.72999572753906,159.72999572753906,971,0.0,0.0
2024-10-09 11:50:00-04:00,159.75,159.75,159.75,159.75,264,0.0,0.0
2024-10-09 11:54:00-04:00,159.7449951171875,159.7449951171875,159.7449951171875,159.7449951171875,704,0.0,0.0
2024-10-09 11:58:00-04:00,159.77499389648438,159.77499389648438,159.77499389648438,159.77499389648438,379,0.0,0.0
2024-10-09 12:00:00-04:00,159.7899932861328,159.7899932861328,159.75,159.75999450683594,485,0.0,0.0
2024-10-09 12:01:00-04:00,159.76499938964844,159.76499938964844,159.76499938964844,159.76499938964844,652,0.0,0.0
2024-10-09 12:05:00-04:00,159.74630737304688,159.74630737304688,159.74630737304688,159.74630737304688,137,0.0,0.0
2024-10-09 12:06:00-04:00,159.76499938964844,159.76499938964844,159.76499938964844,159.76499938964844,317,0.0,0.0
2024-10-09 12:09:00-04:00,159.841796875,159.841796875,159.841796875,159.841796875,442,0.0,0.0
2024-10-09 12:10:00-04:00,159.8699951171875,159.9949951171875,159.8300018310547,159.9949951171875,2051,0.0,0.0
2024-10-09 12:11:00-04:00,160.00999450683594,160.00999450683594,160.00999450683594,160.00999450683594,111,0.0,0.0
2024-10-09 12:12:00-04:00,160.02000427246094,160.02000427246094,160.02000427246094,160.02000427246094,287,0.0,0.0
2024-10-09 12:14:00-04:00,159.9499969482422,159.9499969482422,159.94000244140625,159.94000244140625,1116,0.0,0.0
2024-10-09 12:15:00-04:00,159.8000030517578,159.86000061035156,159.8000030517578,159.86000061035156,484,0.0,0.0
2024-10-09 12:17:00-04:00,159.75,159.77000427246094,159.75,159.77000427246094,576,0.0,0.0
2024-10-09 12:21:00-04:00,159.7100067138672,159.7100067138672,159.7100067138672,159.7100067138672,216,0.0,0.0
2024-10-09 12:22:00-04:00,159.78500366210938,159.78500366210938,159.78500366210938,159.78500366210938,234,0.0,0.0
2024-10-09 12:25:00-04:00,159.85989379882812,159.85989379882812,159.85989379882812,159.85989379882812,260,0.0,0.0
2024-10-09 12:26:00-04:00,159.7949981689453,159.7949981689453,159.7949981689453,159.7949981689453,440,0.0,0.0
2024-10-09 12:28:00-04:00,159.72000122070312,159.72000122070312,159.6699981689453,159.6999969482422,672,0.0,0.0
2024-10-09 12:30:00-04:00,159.6699981689453,159.67999267578125,159.6699981689453,159.67999267578125,297,0.0,0.0
2024-10-09 12:31:00-04:00,159.57000732421875,159.5800018310547,159.57000732421875,159.5800018310547,904,0.0,0.0
2024-10-09 12:35:00-04:00,159.625,159.625,159.625,159.625,372,0.0,0.0
2024-10-09 12:37:00-04:00,159.6999969482422,159.75,159.6999969482422,159.75,831,0.0,0.0
2024-10-09 12:42:00-04:00,159.57000732421875,159.57000732421875,159.57000732421875,159.57000732421875,826,0.0,0.0
2024-10-09 12:47:00-04:00,159.7100067138672,159.7100067138672,159.7100067138672,159.7100067138672,105,0.0,0.0
2024-10-09 12:48:00-04:00,159.65499877929688,159.65499877929688,159.65499877929688,159.65499877929688,469,0.0,0.0
2024-10-09 12:51:00-04:00,159.61500549316406,159.61500549316406,159.61500549316406,159.61500549316406,199,0.0,0.0
2024-10-09 12:52:00-04:00,159.61000061035156,159.61000061035156,159.57000732421875,159.57000732421875,432,0.0,0.0
2024-10-09 12:53:00-04:00,159.4499969482422,159.4499969482422,159.4499969482422,159.4499969482422,249,0.0,0.0
2024-10-09 12:55:00-04:00,159.42999267578125,159.42999267578125,159.42999267578125,159.42999267578125,397,0.0,0.0
2024-10-09 12:56:00-04:00,159.48500061035156,159.52999877929688,159.48500061035156,159.52999877929688,2353,0.0,0.0
2024-10-09 13:01:00-04:00,159.50999450683594,159.52000427246094,159.4250030517578,159.52000427246094,922,0.0,0.0
2024-10-09 13:02:00-04:00,159.42999267578125,159.42999267578125,159.42999267578125,159.42999267578125,1064,0.0,0.0
2024-10-09 13:10:00-04:00,159.52000427246094,159.5500030517578,159.52000427246094,159.5500030517578,932,0.0,0.0
2024-10-09 13:12:00-04:00,159.58999633789062,159.63999938964844,159.58999633789062,159.63999938964844,648,0.0,0.0
2024-10-09 13:15:00-04:00,159.73500061035156,159.73500061035156,159.73500061035156,159.73500061035156,425,0.0,0.0
2024-10-09 13:23:00-04:00,159.75999450683594,159.75999450683594,159.75999450683594,159.75999450683594,173,0.0,0.0
2024-10-09 13:24:00-04:00,159.7899932861328,160.04989624023438,159.76649475097656,160.04989624023438,2861,0.0,0.0
2024-10-09 13:26:00-04:00,159.94000244140625,159.94000244140625,159.94000244140625,159.94000244140625,209,0.0,0.0
2024-10-09 13:27:00-04:00,159.83999633789062,159.83999633789062,159.83999633789062,159.83999633789062,627,0.0,0.0
2024-10-09 13:30:00-04:00,159.7928924560547,159.7928924560547,159.7928924560547,159.7928924560547,872,0.0,0.0
2024-10-09 13:42:00-04:00,159.75,159.75,159.74000549316406,159.74000549316406,1032,0.0,0.0
2024-10-09 13:52:00-04:00,159.66000366210938,159.66000366210938,159.66000366210938,159.66000366210938,187,0.0,0.0
2024-10-09 13:53:00-04:00,159.63999938964844,159.63999938964844,159.5399932861328,159.5399932861328,1804,0.0,0.0
2024-10-09 13:54:00-04:00,159.61000061035156,159.61000061035156,159.61000061035156,159.61000061035156,2032,0.0,0.0
2024-10-09 14:07:00-04:00,159.6300048828125,159.72000122070312,159.6300048828125,159.72000122070312,1817,0.0,0.0
2024-10-09 14:08:00-04:00,159.75999450683594,159.75999450683594,159.75999450683594,159.75999450683594,745,0.0,0.0
2024-10-09 14:11:00-04:00,159.75,159.75,159.64999389648438,159.64999389648438,1045,0.0,0.0
2024-10-09 14:16:00-04:00,159.66000366210938,159.66000366210938,159.58999633789062,159.5948028564453,752,0.0,0.0
2024-10-09 14:18:00-04:00,159.5399932861328,159.5399932861328,159.52999877929688,159.52999877929688,822,0.0,0.0
2024-10-09 14:24:00-04:00,159.35000610351562,159.35000610351562,159.35000610351562,159.35000610351562,125,0.0,0.0
2024-10-09 14:25:00-04:00,159.4550018310547,159.4550018310547,159.4550018310547,159.4550018310547,1668,0.0,0.0
2024-10-09 14:30:00-04:00,159.25,159.25,159.25,159.25,779,0.0,0.0
2024-10-09 14:38:00-04:00,159.34500122070312,159.34500122070312,159.25,159.25,378,0.0,0.0
2024-10-09 14:41:00-04:00,159.25,159.25,159.25,159.25,185,0.0,0.0
2024-10-09 14:42:00-04:00,159.25,159.33250427246094,159.25,159.33250427246094,479,0.0,0.0
2024-10-09 14:43:00-04:00,159.25,159.27000427246094,159.25,159.27000427246094,610,0.0,0.0
2024-10-09 14:44:00-04:00,159.30999755859375,159.30999755859375,159.30999755859375,159.30999755859375,640,0.0,0.0
2024-10-09 14:47:00-04:00,159.25999450683594,159.3000030517578,159.25999450683594,159.3000030517578,307,0.0,0.0
2024-10-09 14:48:00-04:00,159.30999755859375,159.3300018310547,159.30999755859375,159.32000732421875,2432,0.0,0.0
2024-10-09 14:50:00-04:00,159.22000122070312,159.22000122070312,159.17999267578125,159.17999267578125,1608,0.0,0.0
2024-10-09 14:56:00-04:00,159.11000061035156,159.1199951171875,159.11000061035156,159.1199951171875,1232,0.0,0.0
2024-10-09 15:00:00-04:00,159.05999755859375,159.05999755859375,159.05999755859375,159.05999755859375,888,0.0,0.0
2024-10-09 15:05:00-04:00,159.1053924560547,159.1053924560547,159.1053924560547,159.1053924560547,557,0.0,0.0
2024-10-09 15:07:00-04:00,159.05999755859375,159.05999755859375,159.05999755859375,159.05999755859375,1006,0.0,0.0
2024-10-09 15:15:00-04:00,159.1300048828125,159.13999938964844,159.1300048828125,159.13999938964844,790,0.0,0.0
2024-10-09 15:17:00-04:00,159.14999389648438,159.1999969482422,159.14999389648438,159.1999969482422,546,0.0,0.0
2024-10-09 15:18:00-04:00,159.22999572753906,159.3018035888672,159.22999572753906,159.3018035888672,652,0.0,0.0
2024-10-09 15:24:00-04:00,159.25,159.25,159.25,159.25,317,0.0,0.0
2024-10-09 15:26:00-04:00,159.2899932861328,159.2899932861328,159.2899932861328,159.2899932861328,636,0.0,0.0
2024-10-09 15:29:00-04:00,159.41000366210938,159.41000366210938,159.41000366210938,159.41000366210938,796,0.0,0.0
2024-10-09 15:31:00-04:00,159.3800048828125,159.3800048828125,159.34500122070312,159.34500122070312,697,0.0,0.0
2024-10-09 15:32:00-04:00,159.27999877929688,159.27999877929688,159.25999450683594,159.25999450683594,878,0.0,0.0
2024-10-09 15:35:00-04:00,159.34710693359375,159.34710693359375,159.34710693359375,159.34710693359375,318,0.0,0.0
2024-10-09 15:36:00-04:00,159.34500122070312,159.34500122070312,159.34500122070312,159.34500122070312,666,0.0,0.0
2024-10-09 15:39:00-04:00,159.27000427246094,159.27000427246094,159.25999450683594,159.25999450683594,1529,0.0,0.0
2024-10-09 15:44:00-04:00,159.25999450683594,159.27999877929688,159.25999450683594,159.27999877929688,2244,0.0,0.0
2024-10-09 15:45:00-04:00,159.3699951171875,159.3699951171875,159.3300018310547,159.36000061035156,869,0.0,0.0
2024-10-09 15:46:00-04:00,159.36000061035156,159.36000061035156,159.36000061035156,159.36000061035156,337,0.0,0.0
2024-10-09 15:47:00-04:00,159.39999389648438,159.4600067138672,159.36000061035156,159.4550018310547,1723,0.0,0.0
2024-10-09 15:48:00-04:00,159.42999267578125,159.52999877929688,159.42999267578125,159.52000427246094,845,0.0,0.0
2024-10-09 15:49:00-04:00,159.5012969970703,159.5012969970703,159.5012969970703,159.5012969970703,225,0.0,0.0
2024-10-09 15:50:00-04:00,159.52000427246094,159.5399932861328,159.52000427246094,159.5399932861328,592,0.0,0.0
2024-10-09 15:52:00-04:00,159.6999969482422,159.72999572753906,159.6999969482422,159.72999572753906,1444,0.0,0.0
2024-10-09 15:54:00-04:00,159.71499633789062,159.71499633789062,159.71499633789062,159.71499633789062,400,0.0,0.0
2024-10-09 15:55:00-04:00,159.7050018310547,159.7050018310547,159.7050018310547,159.7050018310547,855,0.0,0.0
2024-10-09 15:56:00-04:00,159.6699981689453,159.67999267578125,159.4949951171875,159.5500030517578,5397,0.0,0.0
2024-10-09 15:57:00-04:00,159.58999633789062,159.58999633789062,159.58999633789062,159.58999633789062,334,0.0,0.0
2024-10-09 15:58:00-04:00,159.7050018310547,159.72999572753906,159.7050018310547,159.72000122070312,2245,0.0,0.0
2024-10-09 15:59:00-04:00,159.6699981689453,159.72000122070312,159.57000732421875,159.72000122070312,4610,0.0,0.0
2024-10-10 09:30:00-04:00,158.0500030517578,158.8000030517578,158.0500030517578,158.8000030517578,6738,0.0,0.0
2024-10-10 09:35:00-04:00,159.23500061035156,159.23500061035156,159.23500061035156,159.23500061035156,188,0.0,0.0
2024-10-10 09:37:00-04:00,158.05999755859375,158.33999633789062,158.05999755859375,158.14999389648438,890,0.0,0.0
2024-10-10 09:44:00-04:00,159.18409729003906,159.18409729003906,159.18409729003906,159.18409729003906,592,0.0,0.0
2024-10-10 09:54:00-04:00,159.02699279785156,159.02699279785156,158.6300048828125,158.6300048828125,353,0.0,0.0
2024-10-10 09:55:00-04:00,159.0,159.0399932861328,158.99000549316406,159.0399932861328,859,0.0,0.0
2024-10-10 09:58:00-04:00,158.75999450683594,158.75999450683594,158.75999450683594,158.75999450683594,763,0.0,0.0
2024-10-10 09:59:00-04:00,158.72500610351562,158.72500610351562,158.72500610351562,158.72500610351562,256,0.0,0.0
2024-10-10 10:03:00-04:00,158.75,158.75,158.75,158.75,206,0.0,0.0
2024-10-10 10:04:00-04:00,158.75,158.75,158.75,158.75,324,0.0,0.0
2024-10-10 10:05:00-04:00,158.75,158.75,158.75,158.75,631,0.0,0.0
2024-10-10 10:14:00-04:00,158.6300048828125,158.6300048828125,158.6300048828125,158.6300048828125,199,0.0,0.0
2024-10-10 10:17:00-04:00,158.80999755859375,159.08999633789062,158.80999755859375,159.02000427246094,1245,0.0,0.0
2024-10-10 10:20:00-04:00,158.91000366210938,158.91000366210938,158.91000366210938,158.91000366210938,435,0.0,0.0
2024-10-10 10:24:00-04:00,159.0500030517578,159.0800018310547,159.0500030517578,159.0800018310547,785,0.0,0.0
2024-10-10 10:26:00-04:00,158.9199981689453,158.9199981689453,158.9199981689453,158.9199981689453,245,0.0,0.0
2024-10-10 10:28:00-04:00,158.9199981689453,158.9199981689453,158.9199981689453,158.9199981689453,324,0.0,0.0
2024-10-10 10:30:00-04:00,158.98500061035156,158.98500061035156,158.98500061035156,158.98500061035156,341,0.0,0.0
2024-10-10 10:34:00-04:00,159.14700317382812,159.14700317382812,159.14700317382812,159.14700317382812,347,0.0,0.0
2024-10-10 10:40:00-04:00,158.86500549316406,158.86500549316406,158.86000061035156,158.86000061035156,520,0.0,0.0
2024-10-10 10:45:00-04:00,158.61000061035156,158.61000061035156,158.61000061035156,158.61000061035156,588,0.0,0.0
2024-10-10 10:47:00-04:00,158.56500244140625,158.56500244140625,158.56500244140625,158.56500244140625,3384,0.0,0.0
2024-10-10 11:04:00-04:00,158.4600067138672,158.47000122070312,158.4600067138672,158.47000122070312,1098,0.0,0.0
2024-10-10 11:06:00-04:00,158.5449981689453,158.5449981689453,158.5449981689453,158.5449981689453,357,0.0,0.0
2024-10-10 11:08:00-04:00,158.68499755859375,158.68499755859375,158.68499755859375,158.68499755859375,327,0.0,0.0
2024-10-10 11:12:00-04:00,158.8300018310547,158.8300018310547,158.8300018310547,158.8300018310547,274,0.0,0.0
2024-10-10 11:18:00-04:00,158.8249969482422,158.8249969482422,158.8249969482422,158.8249969482422,242,0.0,0.0
2024-10-10 11:21:00-04:00,158.67999267578125,158.67999267578125,158.67999267578125,158.67999267578125,794,0.0,0.0
2024-10-10 11:30:00-04:00,158.75999450683594,158.77330017089844,158.7550048828125,158.77000427246094,786,0.0,0.0
2024-10-10 11:32:00-04:00,158.80999755859375,158.8300018310547,158.80999755859375,158.8300018310547,1785,0.0,0.0
2024-10-10 11:37:00-04:00,158.7100067138672,158.7100067138672,158.58999633789062,158.69500732421875,1998,0.0,0.0
2024-10-10 11:52:00-04:00,158.52000427246094,158.52000427246094,158.44000244140625,158.44000244140625,954,0.0,0.0
2024-10-10 11:58:00-04:00,158.50999450683594,158.50999450683594,158.50999450683594,158.50999450683594,138,0.0,0.0
2024-10-10 12:00:00-04:00,158.42999267578125,158.42999267578125,158.42999267578125,158.42999267578125,801,0.0,0.0
2024-10-10 12:09:00-04:00,158.5500030517578,158.58999633789062,158.5500030517578,158.58999633789062,1742,0.0,0.0
2024-10-10 12:13:00-04:00,158.67999267578125,158.67999267578125,158.67999267578125,158.67999267578125,503,0.0,0.0
2024-10-10 12:16:00-04:00,158.7100067138672,158.72000122070312,158.7100067138672,158.72000122070312,736,0.0,0.0
2024-10-10 12:19:00-04:00,158.7050018310547,158.7100067138672,158.7050018310547,158.7100067138672,235,0.0,0.0
2024-10-10 12:21:00-04:00,158.67999267578125,158.75999450683594,158.60000610351562,158.75999450683594,1677,0.0,0.0
2024-10-10 12:33:00-04:00,158.74000549316406,158.74000549316406,158.74000549316406,158.74000549316406,429,0.0,0.0
2024-10-10 12:40:00-04:00,158.72000122070312,158.72000122070312,158.72000122070312,158.72000122070312,713,0.0,0.0
2024-10-10 12:42:00-04:00,158.50999450683594,158.50999450683594,158.50999450683594,158.50999450683594,512,0.0,0.0
2024-10-10 12:44:00-04:00,158.47999572753906,158.5,158.47999572753906,158.5,1368,0.0,0.0
2024-10-10 12:52:00-04:00,158.48500061035156,158.5500030517578,158.48500061035156,158.5500030517578,967,0.0,0.0
2024-10-10 12:54:00-04:00,158.5749969482422,158.5749969482422,158.5749969482422,158.5749969482422,511,0.0,0.0
2024-10-10 12:59:00-04:00,158.44000244140625,158.44000244140625,158.44000244140625,158.44000244140625,346,0.0,0.0
2024-10-10 13:05:00-04:00,158.46270751953125,158.46270751953125,158.46270751953125,158.46270751953125,644,0.0,0.0
2024-10-10 13:06:00-04:00,158.35499572753906,158.35499572753906,158.35499572753906,158.35499572753906,216,0.0,0.0
2024-10-10 13:07:00-04:00,158.4199981689453,158.44000244140625,158.41000366210938,158.44000244140625,1005,0.0,0.0
2024-10-10 13:09:00-04:00,158.3800048828125,158.38999938964844,158.3800048828125,158.38999938964844,511,0.0,0.0
2024-10-10 13:13:00-04:00,158.39500427246094,158.39500427246094,158.39500427246094,158.39500427246094,1574,0.0,0.0
2024-10-10 13:20:00-04:00,158.64999389648438,158.64999389648438,158.64999389648438,158.64999389648438,658,0.0,0.0
2024-10-10 13:26:00-04:00,158.67999267578125,158.67999267578125,158.67999267578125,158.67999267578125,546,0.0,0.0
2024-10-10 13:27:00-04:00,158.75,158.75999450683594,158.75,158.75999450683594,395,0.0,0.0
2024-10-10 13:29:00-04:00,158.6999969482422,158.6999969482422,158.6999969482422,158.6999969482422,406,0.0,0.0
2024-10-10 13:30:00-04:00,158.7100067138672,158.83999633789062,158.7050018310547,158.83999633789062,2731,0.0,0.0
2024-10-10 13:31:00-04:00,158.9250030517578,158.9250030517578,158.9250030517578,158.9250030517578,652,0.0,0.0
2024-10-10 13:47:00-04:00,158.8699951171875,158.8699951171875,158.8699951171875,158.8699951171875,1140,0.0,0.0
2024-10-10 13:49:00-04:00,158.86000061035156,158.86000061035156,158.86000061035156,158.86000061035156,485,0.0,0.0
2024-10-10 13:51:00-04:00,158.80499267578125,158.80499267578125,158.80499267578125,158.80499267578125,231,0.0,0.0
2024-10-10 13:52:00-04:00,158.72000122070312,158.8000030517578,158.72000122070312,158.8000030517578,1417,0.0,0.0
2024-10-10 13:59:00-04:00,159.02000427246094,159.0399932861328,158.99000549316406,158.99000549316406,1612,0.0,0.0
2024-10-10 14:01:00-04:00,158.9600067138672,158.9600067138672,158.9600067138672,158.9600067138672,579,0.0,0.0
2024-10-10 14:07:00-04:00,158.8800048828125,158.8800048828125,158.8800048828125,158.8800048828125,505,0.0,0.0
2024-10-10 14:12:00-04:00,158.8300018310547,158.8300018310547,158.8300018310547,158.8300018310547,528,0.0,0.0
2024-10-10 14:14:00-04:00,158.72999572753906,158.72999572753906,158.72999572753906,158.72999572753906,267,0.0,0.0
2024-10-10 14:16:00-04:00,158.69000244140625,158.74000549316406,158.68499755859375,158.74000549316406,1528,0.0,0.0
2024-10-10 14:20:00-04:00,158.72000122070312,158.72000122070312,158.72000122070312,158.72000122070312,399,0.0,0.0
2024-10-10 14:22:00-04:00,158.77000427246094,158.77000427246094,158.77000427246094,158.77000427246094,512,0.0,0.0
2024-10-10 14:25:00-04:00,158.77000427246094,158.80499267578125,158.75,158.75,1328,0.0,0.0
2024-10-10 14:27:00-04:00,158.74249267578125,158.7449951171875,158.74249267578125,158.74249267578125,693,0.0,0.0
2024-10-10 14:28:00-04:00,158.82000732421875,158.82000732421875,158.7449951171875,158.80999755859375,542,0.0,0.0
2024-10-10 14:30:00-04:00,158.73500061035156,158.74000549316406,158.73500061035156,158.74000549316406,498,0.0,0.0
2024-10-10 14:32:00-04:00,158.7100067138672,158.72000122070312,158.6699981689453,158.72000122070312,1194,0.0,0.0
2024-10-10 14:34:00-04:00,158.73500061035156,158.73500061035156,158.73500061035156,158.73500061035156,230,0.0,0.0
2024-10-10 14:37:00-04:00,158.75509643554688,158.7563018798828,158.66000366210938,158.7563018798828,578,0.0,0.0
2024-10-10 14:38:00-04:00,158.72999572753906,158.72999572753906,158.72999572753906,158.72999572753906,160,0.0,0.0
2024-10-10 14:39:00-04:00,158.72999572753906,158.72999572753906,158.72999572753906,158.72999572753906,741,0.0,0.0
2024-10-10 14:40:00-04:00,158.72500610351562,158.72500610351562,158.72500610351562,158.72500610351562,244,0.0,0.0
2024-10-10 14:42:00-04:00,158.6824951171875,158.6824951171875,158.6699981689453,158.6824951171875,453,0.0,0.0
2024-10-10 14:43:00-04:00,158.61000061035156,158.61000061035156,158.5800018310547,158.5800018310547,1424,0.0,0.0
2024-10-10 14:44:00-04:00,158.60000610351562,158.6199951171875,158.52999877929688,158.53500366210938,2318,0.0,0.0
2024-10-10 14:45:00-04:00,158.45010375976562,158.52499389648438,158.45010375976562,158.52499389648438,764,0.0,0.0
2024-10-10 14:53:00-04:00,158.58999633789062,158.58999633789062,158.58999633789062,158.58999633789062,642,0.0,0.0
2024-10-10 14:54:00-04:00,158.61000061035156,158.61000061035156,158.61000061035156,158.61000061035156,359,0.0,0.0
2024-10-10 14:55:00-04:00,158.61000061035156,158.61500549316406,158.61000061035156,158.61500549316406,399,0.0,0.0
2024-10-10 14:56:00-04:00,158.58999633789062,158.58999633789062,158.58999633789062,158.58999633789062,355,0.0,0.0
2024-10-10 14:58:00-04:00,158.58999633789062,158.58999633789062,158.58999633789062,158.58999633789062,202,0.0,0.0
2024-10-10 14:59:00-04:00,158.63999938964844,158.63999938964844,158.63999938964844,158.63999938964844,300,0.0,0.0
2024-10-10 15:02:00-04:00,158.6699981689453,158.6699981689453,158.6699981689453,158.6699981689453,235,0.0,0.0
2024-10-10 15:03:00-04:00,158.61000061035156,158.66000366210938,158.61000061035156,158.66000366210938,1774,0.0,0.0
2024-10-10 15:04:00-04:00,158.66000366210938,158.66000366210938,158.66000366210938,158.66000366210938,553,0.0,0.0
2024-10-10 15:06:00-04:00,158.7100067138672,158.75999450683594,158.7100067138672,158.75999450683594,768,0.0,0.0
2024-10-10 15:07:00-04:00,158.7899932861328,158.7899932861328,158.7899932861328,158.7899932861328,569,0.0,0.0
2024-10-10 15:09:00-04:00,158.66000366210938,158.66000366210938,158.66000366210938,158.66000366210938,272,0.0,0.0
2024-10-10 15:10:00-04:00,158.64999389648438,158.65499877929688,158.6300048828125,158.65499877929688,687,0.0,0.0
2024-10-10 15:11:00-04:00,158.65499877929688,158.65499877929688,158.65499877929688,158.65499877929688,202,0.0,0.0
2024-10-10 15:12:00-04:00,158.65499877929688,158.65499877929688,158.65499877929688,158.65499877929688,169,0.0,0.0
2024-10-10 15:14:00-04:00,158.65499877929688,158.65499877929688,158.65499877929688,158.65499877929688,332,0.0,0.0
2024-10-10 15:15:00-04:00,158.5800018310547,158.60000610351562,158.52999877929688,158.5850067138672,1882,0.0,0.0
2024-10-10 15:17:00-04:00,158.61500549316406,158.61500549316406,158.61500549316406,158.61500549316406,674,0.0,0.0
2024-10-10 15:18:00-04:00,158.66000366210938,158.7050018310547,158.66000366210938,158.7050018310547,791,0.0,0.0
2024-10-10 15:21:00-04:00,158.71119689941406,158.71119689941406,158.71119689941406,158.71119689941406,851,0.0,0.0
2024-10-10 15:28:00-04:00,158.64999389648438,158.6999969482422,158.6199951171875,158.6199951171875,1320,0.0,0.0
2024-10-10 15:29:00-04:00,158.6300048828125,158.69000244140625,158.6199951171875,158.69000244140625,2522,0.0,0.0
2024-10-10 15:31:00-04:00,158.75999450683594,158.75999450683594,158.75999450683594,158.75999450683594,203,0.0,0.0
2024-10-10 15:32:00-04:00,158.7899932861328,158.7899932861328,158.7899932861328,158.7899932861328,107,0.0,0.0
2024-10-10 15:34:00-04:00,158.77999877929688,158.77999877929688,158.77999877929688,158.77999877929688,784,0.0,0.0
2024-10-10 15:40:00-04:00,158.83999633789062,158.85000610351562,158.83999633789062,158.83999633789062,2100,0.0,0.0
2024-10-10 15:43:00-04:00,158.97500610351562,158.97500610351562,158.92999267578125,158.92999267578125,422,0.0,0.0
2024-10-10 15:45:00-04:00,158.9250030517578,158.92999267578125,158.91000366210938,158.9199981689453,558,0.0,0.0
2024-10-10 15:46:00-04:00,158.9600067138672,159.02000427246094,158.9499969482422,159.02000427246094,1774,0.0,0.0
2024-10-10 15:47:00-04:00,159.0540008544922,159.07000732421875,159.0540008544922,159.07000732421875,476,0.0,0.0
2024-10-10 15:48:00-04:00,159.0399932861328,159.10000610351562,159.02999877929688,159.02999877929688,2461,0.0,0.0
2024-10-10 15:50:00-04:00,159.16000366210938,159.16000366210938,159.14999389648438,159.14999389648438,1274,0.0,0.0
2024-10-10 15:51:00-04:00,159.1699981689453,159.25999450683594,159.1699981689453,159.25999450683594,1569,0.0,0.0
2024-10-10 15:52:00-04:00,159.1999969482422,159.1999969482422,159.1999969482422,159.1999969482422,370,0.0,0.0
2024-10-10 15:53:00-04:00,159.25999450683594,159.2899932861328,159.25999450683594,159.2899932861328,694,0.0,0.0
2024-10-10 15:54:00-04:00,159.32000732421875,159.34500122070312,159.2899932861328,159.33999633789062,1956,0.0,0.0
2024-10-10 15:55:00-04:00,159.32400512695312,159.3800048828125,159.32400512695312,159.3699951171875,1934,0.0,0.0
2024-10-10 15:56:00-04:00,159.27000427246094,159.32000732421875,159.27000427246094,159.2899932861328,1770,0.0,0.0
2024-10-10 15:57:00-04:00,159.27999877929688,159.27999877929688,159.25,159.25,1200,0.0,0.0
2024-10-10 15:58:00-04:00,159.25,159.26499938964844,159.22999572753906,159.26499938964844,1355,0.0,0.0
2024-10-10 15:59:00-04:00,159.19000244140625,159.22999572753906,159.1199951171875,159.16000366210938,5098,0.0,0.0
2024-10-11 09:30:00-04:00,160.94000244140625,160.94000244140625,160.75,160.75,7958,0.0,0.0
2024-10-11 09:31:00-04:00,161.10499572753906,161.10499572753906,161.10499572753906,161.10499572753906,101,0.0,0.0
2024-10-11 09:32:00-04:00,161.30250549316406,161.30250549316406,161.30250549316406,161.30250549316406,547,0.0,0.0
2024-10-11 09:33:00-04:00,160.72000122070312,160.84500122070312,160.72000122070312,160.84500122070312,1098,0.0,0.0
2024-10-11 09:36:00-04:00,161.28990173339844,161.28990173339844,161.28990173339844,161.28990173339844,249,0.0,0.0
2024-10-11 09:37:00-04:00,161.05999755859375,161.14500427246094,160.94000244140625,161.14500427246094,786,0.0,0.0
2024-10-11 09:38:00-04:00,160.94000244140625,160.94000244140625,160.94000244140625,160.94000244140625,240,0.0,0.0
2024-10-11 09:39:00-04:00,160.80499267578125,160.80499267578125,160.80499267578125,160.80499267578125,175,0.0,0.0
2024-10-11 09:43:00-04:00,160.78500366210938,160.78500366210938,160.78500366210938,160.78500366210938,721,0.0,0.0
2024-10-11 09:52:00-04:00,160.50999450683594,160.50999450683594,160.5050048828125,160.5050048828125,427,0.0,0.0
2024-10-11 09:53:00-04:00,160.5,160.5,160.5,160.5,299,0.0,0.0
2024-10-11 09:55:00-04:00,160.4550018310547,160.4550018310547,160.4550018310547,160.4550018310547,610,0.0,0.0
2024-10-11 09:56:00-04:00,160.5,160.5,160.47500610351562,160.47500610351562,202,0.0,0.0
2024-10-11 09:57:00-04:00,160.47500610351562,160.60000610351562,160.47500610351562,160.5800018310547,1343,0.0,0.0
2024-10-11 10:00:00-04:00,160.52999877929688,160.52999877929688,160.35499572753906,160.35499572753906,2715,0.0,0.0
2024-10-11 10:01:00-04:00,160.58999633789062,160.58999633789062,160.58999633789062,160.58999633789062,547,0.0,0.0
2024-10-11 10:02:00-04:00,160.58999633789062,160.58999633789062,160.58999633789062,160.58999633789062,168,0.0,0.0
2024-10-11 10:03:00-04:00,160.61500549316406,160.61500549316406,160.61500549316406,160.61500549316406,191,0.0,0.0
2024-10-11 10:04:00-04:00,160.61500549316406,160.61500549316406,160.61500549316406,160.61500549316406,445,0.0,0.0
2024-10-11 10:06:00-04:00,160.61500549316406,160.61500549316406,160.61500549316406,160.61500549316406,521,0.0,0.0
2024-10-11 10:09:00-04:00,160.61500549316406,160.61500549316406,160.61500549316406,160.61500549316406,131,0.0,0.0
2024-10-11 10:10:00-04:00,160.61500549316406,161.0800018310547,160.61500549316406,161.0800018310547,1539,0.0,0.0
2024-10-11 10:11:00-04:00,161.10000610351562,161.10000610351562,161.0449981689453,161.0449981689453,543,0.0,0.0
2024-10-11 10:12:00-04:00,161.0399932861328,161.0399932861328,160.82000732421875,160.97999572753906,4072,0.0,0.0
2024-10-11 10:15:00-04:00,161.201904296875,161.201904296875,161.05999755859375,161.05999755859375,517,0.0,0.0
2024-10-11 10:17:00-04:00,161.10000610351562,161.10000610351562,161.09500122070312,161.09500122070312,913,0.0,0.0
2024-10-11 10:20:00-04:00,161.0500030517578,161.0500030517578,161.0500030517578,161.0500030517578,1205,0.0,0.0
2024-10-11 10:21:00-04:00,161.05999755859375,161.14999389648438,161.0050048828125,161.00999450683594,2535,0.0,0.0
2024-10-11 10:22:00-04:00,160.99000549316406,161.1999969482422,160.99000549316406,161.1699981689453,1286,0.0,0.0
2024-10-11 10:23:00-04:00,161.33999633789062,161.33999633789062,161.33999633789062,161.33999633789062,435,0.0,0.0
2024-10-11 10:26:00-04:00,161.42999267578125,161.42999267578125,161.42999267578125,161.42999267578125,110,0.0,0.0
2024-10-11 10:28:00-04:00,161.36500549316406,161.36500549316406,161.36500549316406,161.36500549316406,379,0.0,0.0
2024-10-11 10:29:00-04:00,161.2899932861328,161.2899932861328,161.2899932861328,161.2899932861328,658,0.0,0.0
2024-10-11 10:33:00-04:00,161.4398956298828,161.4398956298828,161.4398956298828,161.4398956298828,387,0.0,0.0
2024-10-11 10:38:00-04:00,161.1300048828125,161.1300048828125,161.1300048828125,161.1300048828125,498,0.0,0.0
2024-10-11 10:42:00-04:00,161.07000732421875,161.07000732421875,161.07000732421875,161.07000732421875,720,0.0,0.0
2024-10-11 10:46:00-04:00,161.13999938964844,161.13999938964844,161.13999938964844,161.13999938964844,696,0.0,0.0
2024-10-11 10:48:00-04:00,161.2899932861328,161.2899932861328,161.2899932861328,161.2899932861328,243,0.0,0.0
2024-10-11 10:52:00-04:00,161.36000061035156,161.36000061035156,161.36000061035156,161.36000061035156,810,0.0,0.0
2024-10-11 10:54:00-04:00,161.41909790039062,161.41909790039062,161.41909790039062,161.41909790039062,134,0.0,0.0
2024-10-11 10:56:00-04:00,161.47000122070312,161.47000122070312,161.47000122070312,161.47000122070312,109,0.0,0.0
2024-10-11 10:57:00-04:00,161.47999572753906,161.5,161.35000610351562,161.44500732421875,2002,0.0,0.0
2024-10-11 10:59:00-04:00,161.33999633789062,161.33999633789062,161.33999633789062,161.33999633789062,431,0.0,0.0
2024-10-11 11:02:00-04:00,161.4199981689453,161.4199981689453,161.4199981689453,161.4199981689453,133,0.0,0.0
2024-10-11 11:05:00-04:00,161.42999267578125,161.42999267578125,161.42999267578125,161.42999267578125,287,0.0,0.0
2024-10-11 11:08:00-04:00,161.40499877929688,161.4600067138672,161.36000061035156,161.3800048828125,2063,0.0,0.0
2024-10-11 11:13:00-04:00,161.4499969482422,161.52999877929688,161.38999938964844,161.47500610351562,2342,0.0,0.0
2024-10-11 11:17:00-04:00,161.5,161.52499389648438,161.5,161.52499389648438,203,0.0,0.0
2024-10-11 11:18:00-04:00,161.52000427246094,161.52000427246094,161.52000427246094,161.52000427246094,504,0.0,0.0
2024-10-11 11:19:00-04:00,161.49000549316406,161.49000549316406,161.49000549316406,161.49000549316406,337,0.0,0.0
2024-10-11 11:25:00-04:00,161.4199981689453,161.4199981689453,161.41000366210938,161.41000366210938,1438,0.0,0.0
2024-10-11 11:30:00-04:00,161.38499450683594,161.38499450683594,161.38499450683594,161.38499450683594,149,0.0,0.0
2024-10-11 11:31:00-04:00,161.38499450683594,161.38499450683594,161.30999755859375,161.32000732421875,997,0.0,0.0
2024-10-11 11:33:00-04:00,161.375,161.375,161.375,161.375,379,0.0,0.0
2024-10-11 11:36:00-04:00,161.3800048828125,161.47000122070312,161.3800048828125,161.38999938964844,3642,0.0,0.0
2024-10-11 11:45:00-04:00,161.36000061035156,161.36000061035156,161.36000061035156,161.36000061035156,252,0.0,0.0
2024-10-11 11:46:00-04:00,161.39999389648438,161.39999389648438,161.3249969482422,161.3800048828125,1589,0.0,0.0
2024-10-11 11:50:00-04:00,161.32000732421875,161.32000732421875,161.27999877929688,161.27999877929688,1052,0.0,0.0
2024-10-11 11:51:00-04:00,161.3000030517578,161.3000030517578,161.3000030517578,161.3000030517578,135,0.0,0.0
2024-10-11 11:52:00-04:00,161.2899932861328,161.2899932861328,161.2899932861328,161.2899932861328,786,0.0,0.0
2024-10-11 12:00:00-04:00,161.22999572753906,161.22999572753906,161.22999572753906,161.22999572753906,163,0.0,0.0
2024-10-11 12:01:00-04:00,161.2449951171875,161.25,161.2449951171875,161.25,315,0.0,0.0
2024-10-11 12:04:00-04:00,161.17999267578125,161.17999267578125,161.17999267578125,161.17999267578125,197,0.0,0.0
2024-10-11 12:05:00-04:00,161.25799560546875,161.25799560546875,161.25799560546875,161.25799560546875,249,0.0,0.0
2024-10-11 12:06:00-04:00,161.2012939453125,161.2012939453125,161.2012939453125,161.2012939453125,125,0.0,0.0
2024-10-11 12:07:00-04:00,161.1999969482422,161.1999969482422,161.1999969482422,161.1999969482422,712,0.0,0.0
2024-10-11 12:09:00-04:00,161.125,161.125,161.125,161.125,565,0.0,0.0
2024-10-11 12:15:00-04:00,161.0399932861328,161.0399932861328,161.0399932861328,161.0399932861328,155,0.0,0.0
2024-10-11 12:19:00-04:00,161.19000244140625,161.19000244140625,161.19000244140625,161.19000244140625,216,0.0,0.0
2024-10-11 12:21:00-04:00,161.1699981689453,161.1699981689453,161.10499572753906,161.10499572753906,572,0.0,0.0
2024-10-11 12:22:00-04:00,161.10499572753906,161.3199005126953,161.10499572753906,161.3199005126953,1485,0.0,0.0
2024-10-11 12:25:00-04:00,161.21499633789062,161.21499633789062,161.14999389648438,161.14999389648438,714,0.0,0.0
2024-10-11 12:31:00-04:00,161.1649932861328,161.1649932861328,161.1649932861328,161.1649932861328,114,0.0,0.0
2024-10-11 12:32:00-04:00,161.22000122070312,161.22000122070312,161.22000122070312,161.22000122070312,772,0.0,0.0
2024-10-11 12:36:00-04:00,161.22000122070312,161.22000122070312,161.2100067138672,161.2100067138672,499,0.0,0.0
2024-10-11 12:38:00-04:00,161.3148956298828,161.3148956298828,161.3148956298828,161.3148956298828,1215,0.0,0.0
2024-10-11 12:47:00-04:00,161.19000244140625,161.27999877929688,161.19000244140625,161.27999877929688,1230,0.0,0.0
2024-10-11 12:49:00-04:00,161.20010375976562,161.20010375976562,161.20010375976562,161.20010375976562,442,0.0,0.0
2024-10-11 12:51:00-04:00,161.3699951171875,161.3699951171875,161.3699951171875,161.3699951171875,580,0.0,0.0
2024-10-11 13:00:00-04:00,161.3699951171875,161.4600067138672,161.3699951171875,161.4600067138672,1373,0.0,0.0
2024-10-11 13:05:00-04:00,161.3800048828125,161.3800048828125,161.3800048828125,161.3800048828125,254,0.0,0.0
2024-10-11 13:06:00-04:00,161.4199981689453,161.4199981689453,161.3699951171875,161.3699951171875,455,0.0,0.0
2024-10-11 13:10:00-04:00,161.30999755859375,161.30999755859375,161.30999755859375,161.30999755859375,107,0.0,0.0
2024-10-11 13:11:00-04:00,161.33999633789062,161.33999633789062,161.33999633789062,161.33999633789062,466,0.0,0.0
2024-10-11 13:18:00-04:00,161.39999389648438,161.39999389648438,161.39999389648438,161.39999389648438,844,0.0,0.0
2024-10-11 13:23:00-04:00,161.47000122070312,161.47000122070312,161.47000122070312,161.47000122070312,332,0.0,0.0
2024-10-11 13:26:00-04:00,161.38999938964844,161.38999938964844,161.38999938964844,161.38999938964844,991,0.0,0.0
2024-10-11 13:38:00-04:00,161.36500549316406,161.4499969482422,161.36500549316406,161.4499969482422,811,0.0,0.0
2024-10-11 13:39:00-04:00,161.41000366210938,161.41000366210938,161.41000366210938,161.41000366210938,458,0.0,0.0
2024-10-11 13:42:00-04:00,161.42999267578125,161.42999267578125,161.22999572753906,161.35000610351562,7012,0.0,0.0
2024-10-11 13:45:00-04:00,161.3699951171875,161.43499755859375,161.3699951171875,161.43499755859375,690,0.0,0.0
2024-10-11 13:47:00-04:00,161.44000244140625,161.5050048828125,161.44000244140625,161.5050048828125,662,0.0,0.0
2024-10-11 13:48:00-04:00,161.5050048828125,161.5050048828125,161.5050048828125,161.5050048828125,205,0.0,0.0
2024-10-11 13:49:00-04:00,161.47329711914062,161.47329711914062,161.47329711914062,161.47329711914062,318,0.0,0.0
2024-10-11 13:50:00-04:00,161.4199981689453,161.42999267578125,161.4199981689453,161.42999267578125,781,0.0,0.0
2024-10-11 13:54:00-04:00,161.5,161.5,161.5,161.5,982,0.0,0.0
2024-10-11 14:01:00-04:00,161.5399932861328,161.5399932861328,161.5399932861328,161.5399932861328,182,0.0,0.0
2024-10-11 14:04:00-04:00,161.52999877929688,161.5399932861328,161.52999877929688,161.5399932861328,2863,0.0,0.0
2024-10-11 14:13:00-04:00,161.50999450683594,161.5500030517578,161.50999450683594,161.52999877929688,2636,0.0,0.0
2024-10-11 14:14:00-04:00,161.5850067138672,161.5850067138672,161.5850067138672,161.5850067138672,522,0.0,0.0
2024-10-11 14:19:00-04:00,161.61000061035156,161.61000061035156,161.61000061035156,161.61000061035156,248,0.0,0.0
2024-10-11 14:23:00-04:00,161.61000061035156,161.61500549316406,161.57000732421875,161.61000061035156,1492,0.0,0.0
2024-10-11 14:24:00-04:00,161.66000366210938,161.66000366210938,161.66000366210938,161.66000366210938,857,0.0,0.0
2024-10-11 14:26:00-04:00,161.75999450683594,161.75999450683594,161.75999450683594,161.75999450683594,436,0.0,0.0
2024-10-11 14:28:00-04:00,161.88999938964844,161.88999938964844,161.88999938964844,161.88999938964844,382,0.0,0.0
2024-10-11 14:31:00-04:00,161.7949981689453,161.91700744628906,161.7949981689453,161.91700744628906,220,0.0,0.0
2024-10-11 14:32:00-04:00,161.7949981689453,161.7949981689453,161.7949981689453,161.7949981689453,462,0.0,0.0
2024-10-11 14:33:00-04:00,161.86000061035156,161.86000061035156,161.80499267578125,161.80499267578125,523,0.0,0.0
2024-10-11 14:34:00-04:00,161.80499267578125,161.80499267578125,161.80499267578125,161.80499267578125,263,0.0,0.0
2024-10-11 14:35:00-04:00,161.77999877929688,161.77999877929688,161.77999877929688,161.77999877929688,230,0.0,0.0
2024-10-11 14:36:00-04:00,161.77499389648438,161.77499389648438,161.77499389648438,161.77499389648438,242,0.0,0.0
2024-10-11 14:37:00-04:00,161.67999267578125,161.67999267578125,161.63999938964844,161.67999267578125,1226,0.0,0.0
2024-10-11 14:38:00-04:00,161.61000061035156,161.61000061035156,161.61000061035156,161.61000061035156,100,0.0,0.0
2024-10-11 14:39:00-04:00,161.68179321289062,161.68179321289062,161.68179321289062,161.68179321289062,465,0.0,0.0
2024-10-11 14:40:00-04:00,161.61000061035156,161.61000061035156,161.61000061035156,161.61000061035156,884,0.0,0.0
2024-10-11 14:42:00-04:00,161.67999267578125,161.67999267578125,161.67999267578125,161.67999267578125,144,0.0,0.0
2024-10-11 14:43:00-04:00,161.67999267578125,161.67999267578125,161.67999267578125,161.67999267578125,387,0.0,0.0
2024-10-11 14:46:00-04:00,161.64999389648438,161.64999389648438,161.64999389648438,161.64999389648438,787,0.0,0.0
2024-10-11 14:49:00-04:00,161.58999633789062,161.58999633789062,161.5449981689453,161.5449981689453,799,0.0,0.0
2024-10-11 14:50:00-04:00,161.5500030517578,161.60000610351562,161.5500030517578,161.60000610351562,1460,0.0,0.0
2024-10-11 14:51:00-04:00,161.6300048828125,161.6300048828125,161.6300048828125,161.6300048828125,404,0.0,0.0
2024-10-11 14:56:00-04:00,161.58999633789062,161.58999633789062,161.58999633789062,161.58999633789062,651,0.0,0.0
2024-10-11 15:00:00-04:00,161.55999755859375,161.57000732421875,161.5500030517578,161.55999755859375,1001,0.0,0.0
2024-10-11 15:01:00-04:00,161.55499267578125,161.55499267578125,161.5500030517578,161.5500030517578,234,0.0,0.0
2024-10-11 15:03:00-04:00,161.5800018310547,161.58999633789062,161.5500030517578,161.5500030517578,1209,0.0,0.0
2024-10-11 15:04:00-04:00,161.5399932861328,161.5399932861328,161.5399932861328,161.5399932861328,308,0.0,0.0
2024-10-11 15:05:00-04:00,161.4600067138672,161.5449981689453,161.4600067138672,161.5,3840,0.0,0.0
2024-10-11 15:06:00-04:00,161.5,161.5,161.5,161.5,226,0.0,0.0
2024-10-11 15:07:00-04:00,161.5,161.5,161.5,161.5,132,0.0,0.0
2024-10-11 15:08:00-04:00,161.5,161.5,161.5,161.5,739,0.0,0.0
2024-10-11 15:09:00-04:00,161.625,161.625,161.625,161.625,585,0.0,0.0
2024-10-11 15:12:00-04:00,161.63499450683594,161.63499450683594,161.63499450683594,161.63499450683594,247,0.0,0.0
2024-10-11 15:13:00-04:00,161.5500030517578,161.5500030517578,161.5500030517578,161.5500030517578,100,0.0,0.0
2024-10-11 15:14:00-04:00,161.5399932861328,161.5500030517578,161.5399932861328,161.5500030517578,589,0.0,0.0
2024-10-11 15:15:00-04:00,161.58999633789062,161.58999633789062,161.56500244140625,161.56500244140625,1205,0.0,0.0
2024-10-11 15:18:00-04:00,161.6999969482422,161.6999969482422,161.6999969482422,161.6999969482422,195,0.0,0.0
2024-10-11 15:21:00-04:00,161.59500122070312,161.59500122070312,161.59500122070312,161.59500122070312,303,0.0,0.0
2024-10-11 15:23:00-04:00,161.52999877929688,161.5399932861328,161.52999877929688,161.5399932861328,900,0.0,0.0
2024-10-11 15:24:00-04:00,161.50999450683594,161.5399932861328,161.50999450683594,161.52000427246094,1274,0.0,0.0
2024-10-11 15:25:00-04:00,161.53500366210938,161.53500366210938,161.4425048828125,161.5,2895,0.0,0.0
2024-10-11 15:26:00-04:00,161.51499938964844,161.51499938964844,161.51499938964844,161.51499938964844,338,0.0,0.0
2024-10-11 15:28:00-04:00,161.51499938964844,161.51499938964844,161.50999450683594,161.50999450683594,413,0.0,0.0
2024-10-11 15:29:00-04:00,161.52999877929688,161.66000366210938,161.52999877929688,161.66000366210938,2428,0.0,0.0
2024-10-11 15:30:00-04:00,161.5500030517578,161.5500030517578,161.5500030517578,161.5500030517578,356,0.0,0.0
2024-10-11 15:32:00-04:00,161.50999450683594,161.5500030517578,161.50999450683594,161.52999877929688,1145,0.0,0.0
2024-10-11 15:33:00-04:00,161.52000427246094,161.52000427246094,161.52000427246094,161.52000427246094,393,0.0,0.0
2024-10-11 15:34:00-04:00,161.5,161.5,161.5,161.5,303,0.0,0.0
2024-10-11 15:36:00-04:00,161.5,161.5,161.5,161.5,236,0.0,0.0
2024-10-11 15:37:00-04:00,161.51759338378906,161.51759338378906,161.51759338378906,161.51759338378906,352,0.0,0.0
2024-10-11 15:38:00-04:00,161.52000427246094,161.52000427246094,161.52000427246094,161.52000427246094,668,0.0,0.0
2024-10-11 15:40:00-04:00,161.49000549316406,161.51499938964844,161.49000549316406,161.51499938964844,370,0.0,0.0
2024-10-11 15:41:00-04:00,161.51499938964844,161.51499938964844,161.51499938964844,161.51499938964844,311,0.0,0.0
2024-10-11 15:42:00-04:00,161.51499938964844,161.51499938964844,161.51499938964844,161.51499938964844,1189,0.0,0.0
2024-10-11 15:43:00-04:00,161.51499938964844,161.51499938964844,161.51499938964844,161.51499938964844,1404,0.0,0.0
2024-10-11 15:44:00-04:00,161.5399932861328,161.5399932861328,161.35000610351562,161.35000610351562,3050,0.0,0.0
2024-10-11 15:45:00-04:00,161.25,161.3699951171875,161.25,161.3699951171875,1367,0.0,0.0
2024-10-11 15:46:00-04:00,161.3300018310547,161.3300018310547,161.1999969482422,161.27499389648438,1306,0.0,0.0
2024-10-11 15:47:00-04:00,161.3000030517578,161.3300018310547,161.3000030517578,161.3300018310547,468,0.0,0.0
2024-10-11 15:49:00-04:00,161.47999572753906,161.6199951171875,161.47999572753906,161.5500030517578,2099,0.0,0.0
2024-10-11 15:50:00-04:00,161.63999938964844,161.63999938964844,161.47999572753906,161.47999572753906,1123,0.0,0.0
2024-10-11 15:51:00-04:00,161.47999572753906,161.47999572753906,161.47999572753906,161.47999572753906,640,0.0,0.0
2024-10-11 15:52:00-04:00,161.5500030517578,161.5500030517578,161.4949951171875,161.4949951171875,366,0.0,0.0
2024-10-11 15:53:00-04:00,161.4720001220703,161.4720001220703,161.39500427246094,161.39500427246094,2237,0.0,0.0
2024-10-11 15:54:00-04:00,161.39500427246094,161.4499969482422,161.3800048828125,161.4149932861328,1839,0.0,0.0
2024-10-11 15:55:00-04:00,161.39999389648438,161.52000427246094,161.39999389648438,161.52000427246094,2007,0.0,0.0
2024-10-11 15:56:00-04:00,161.5399932861328,161.5399932861328,161.5,161.5,663,0.0,0.0
2024-10-11 15:57:00-04:00,161.5500030517578,161.5500030517578,161.51499938964844,161.51499938964844,1851,0.0,0.0
2024-10-11 15:58:00-04:00,161.5399932861328,161.5500030517578,161.47999572753906,161.47999572753906,2975,0.0,0.0
2024-10-11 15:59:00-04:00,161.50999450683594,161.52999877929688,161.49000549316406,161.50999450683594,4875,0.0,0.0
