Datetime,Open,High,Low,Close,Volume,Dividends,Stock Splits
2024-06-24 09:30:00-04:00,147.22000122070312,147.22000122070312,147.22000122070312,147.22000122070312,1975,0.0,0.0
2024-06-24 09:32:00-04:00,147.2100067138672,147.2100067138672,147.2100067138672,147.2100067138672,157,0.0,0.0
2024-06-24 09:33:00-04:00,147.21499633789062,147.21499633789062,147.11500549316406,147.11500549316406,401,0.0,0.0
2024-06-24 09:37:00-04:00,147.3300018310547,147.3300018310547,147.3300018310547,147.3300018310547,102,0.0,0.0
2024-06-24 09:38:00-04:00,147.3699951171875,147.3699951171875,147.3699951171875,147.3699951171875,229,0.0,0.0
2024-06-24 09:44:00-04:00,147.3000030517578,147.3000030517578,147.3000030517578,147.3000030517578,1279,0.0,0.0
2024-06-24 09:46:00-04:00,147.50999450683594,147.50999450683594,147.47000122070312,147.47000122070312,1609,0.0,0.0
2024-06-24 09:55:00-04:00,147.69000244140625,147.89999389648438,147.69000244140625,147.89999389648438,608,0.0,0.0
2024-06-24 09:58:00-04:00,147.75999450683594,147.75999450683594,147.75999450683594,147.75999450683594,401,0.0,0.0
2024-06-24 10:00:00-04:00,147.6300048828125,147.65499877929688,147.6300048828125,147.64999389648438,526,0.0,0.0
2024-06-24 10:01:00-04:00,147.64999389648438,147.64999389648438,147.64999389648438,147.64999389648438,492,0.0,0.0
2024-06-24 10:06:00-04:00,147.83999633789062,148.02000427246094,147.8300018310547,147.85499572753906,1392,0.0,0.0
2024-06-24 10:07:00-04:00,147.64999389648438,147.64999389648438,147.64999389648438,147.64999389648438,266,0.0,0.0
2024-06-24 10:15:00-04:00,148.05999755859375,148.05999755859375,148.05999755859375,148.05999755859375,255,0.0,0.0
2024-06-24 10:19:00-04:00,147.97999572753906,147.97999572753906,147.97999572753906,147.97999572753906,670,0.0,0.0
2024-06-24 10:21:00-04:00,148.1450958251953,148.16000366210938,148.1450958251953,148.16000366210938,451,0.0,0.0
2024-06-24 10:26:00-04:00,148.00999450683594,148.00999450683594,147.97999572753906,147.97999572753906,768,0.0,0.0
2024-06-24 10:33:00-04:00,147.9199981689453,147.92999267578125,147.88999938964844,147.88999938964844,1933,0.0,0.0
2024-06-24 10:36:00-04:00,147.8509979248047,147.8509979248047,147.8509979248047,147.8509979248047,253,0.0,0.0
2024-06-24 10:37:00-04:00,148.02999877929688,148.02999877929688,148.0050048828125,148.0050048828125,459,0.0,0.0
2024-06-24 10:38:00-04:00,147.93499755859375,148.07000732421875,147.93499755859375,148.07000732421875,436,0.0,0.0
2024-06-24 10:44:00-04:00,148.1300048828125,148.1300048828125,148.02999877929688,148.02999877929688,1002,0.0,0.0
2024-06-24 10:48:00-04:00,148.22999572753906,148.22999572753906,148.22999572753906,148.22999572753906,488,0.0,0.0
2024-06-24 10:50:00-04:00,148.22000122070312,148.22000122070312,148.22000122070312,148.22000122070312,120,0.0,0.0
2024-06-24 10:51:00-04:00,148.11000061035156,148.1199951171875,148.11000061035156,148.1199951171875,301,0.0,0.0
2024-06-24 10:52:00-04:00,148.0500030517578,148.1300048828125,148.0399932861328,148.1300048828125,947,0.0,0.0
2024-06-24 10:56:00-04:00,147.99000549316406,148.0850067138672,147.99000549316406,148.0850067138672,282,0.0,0.0
2024-06-24 10:57:00-04:00,148.10000610351562,148.10000610351562,148.10000610351562,148.10000610351562,410,0.0,0.0
2024-06-24 11:01:00-04:00,147.9499969482422,147.9499969482422,147.9499969482422,147.9499969482422,125,0.0,0.0
2024-06-24 11:04:00-04:00,148.0,148.0,148.0,148.0,355,0.0,0.0
2024-06-24 11:07:00-04:00,147.89999389648438,147.89999389648438,147.89999389648438,147.89999389648438,479,0.0,0.0
2024-06-24 11:13:00-04:00,147.77000427246094,147.77000427246094,147.61000061035156,147.61000061035156,644,0.0,0.0
2024-06-24 11:15:00-04:00,147.49000549316406,147.49000549316406,147.49000549316406,147.49000549316406,156,0.0,0.0
2024-06-24 11:16:00-04:00,147.49000549316406,147.49000549316406,147.49000549316406,147.49000549316406,645,0.0,0.0
2024-06-24 11:17:00-04:00,147.50999450683594,147.61000061035156,147.50999450683594,147.58999633789062,904,0.0,0.0
2024-06-24 11:19:00-04:00,147.5,147.5,147.5,147.5,726,0.0,0.0
2024-06-24 11:23:00-04:00,147.5800018310547,147.77999877929688,147.5800018310547,147.7050018310547,3059,0.0,0.0
2024-06-24 11:33:00-04:00,147.72999572753906,147.72999572753906,147.5800018310547,147.5800018310547,1398,0.0,0.0
2024-06-24 11:34:00-04:00,147.625,147.625,147.625,147.625,424,0.0,0.0
2024-06-24 11:40:00-04:00,147.35000610351562,147.35000610351562,147.35000610351562,147.35000610351562,589,0.0,0.0
2024-06-24 11:48:00-04:00,147.3300018310547,147.3300018310547,147.3300018310547,147.3300018310547,305,0.0,0.0
2024-06-24 11:51:00-04:00,147.38999938964844,147.38999938964844,147.38999938964844,147.38999938964844,448,0.0,0.0
2024-06-24 11:52:00-04:00,147.44000244140625,147.44000244140625,147.44000244140625,147.44000244140625,499,0.0,0.0
2024-06-24 11:53:00-04:00,147.5500030517578,147.5500030517578,147.5500030517578,147.5500030517578,399,0.0,0.0
2024-06-24 12:00:00-04:00,147.4199981689453,147.42999267578125,147.36500549316406,147.36500549316406,1089,0.0,0.0
2024-06-24 12:02:00-04:00,147.3699951171875,147.3699951171875,147.3699951171875,147.3699951171875,450,0.0,0.0
2024-06-24 12:04:00-04:00,147.47000122070312,147.47000122070312,147.44000244140625,147.4499969482422,1978,0.0,0.0
2024-06-24 12:12:00-04:00,147.48500061035156,147.48500061035156,147.48500061035156,147.48500061035156,162,0.0,0.0
2024-06-24 12:13:00-04:00,147.55999755859375,147.55999755859375,147.55999755859375,147.55999755859375,443,0.0,0.0
2024-06-24 12:19:00-04:00,147.5800018310547,147.58999633789062,147.5800018310547,147.58999633789062,485,0.0,0.0
2024-06-24 12:25:00-04:00,147.52499389648438,147.52499389648438,147.52499389648438,147.52499389648438,145,0.0,0.0
2024-06-24 12:27:00-04:00,147.4600067138672,147.4600067138672,147.4600067138672,147.4600067138672,274,0.0,0.0
2024-06-24 12:28:00-04:00,147.44000244140625,147.44000244140625,147.42999267578125,147.44000244140625,768,0.0,0.0
2024-06-24 12:29:00-04:00,147.38499450683594,147.38499450683594,147.38499450683594,147.38499450683594,155,0.0,0.0
2024-06-24 12:32:00-04:00,147.41000366210938,147.41000366210938,147.41000366210938,147.41000366210938,153,0.0,0.0
2024-06-24 12:36:00-04:00,147.2899932861328,147.2899932861328,147.2899932861328,147.2899932861328,128,0.0,0.0
2024-06-24 12:37:00-04:00,147.2899932861328,147.2899932861328,147.2899932861328,147.2899932861328,458,0.0,0.0
2024-06-24 12:43:00-04:00,147.30499267578125,147.30499267578125,147.30499267578125,147.30499267578125,153,0.0,0.0
2024-06-24 12:45:00-04:00,147.22999572753906,147.22999572753906,147.22999572753906,147.22999572753906,567,0.0,0.0
2024-06-24 12:53:00-04:00,147.2100067138672,147.2100067138672,147.2100067138672,147.2100067138672,388,0.0,0.0
2024-06-24 12:55:00-04:00,147.25999450683594,147.38499450683594,147.25999450683594,147.38499450683594,1969,0.0,0.0
2024-06-24 12:56:00-04:00,147.39999389648438,147.39999389648438,147.39999389648438,147.39999389648438,547,0.0,0.0
2024-06-24 13:05:00-04:00,147.3300018310547,147.3300018310547,147.3300018310547,147.3300018310547,555,0.0,0.0
2024-06-24 13:11:00-04:00,147.19000244140625,147.19000244140625,147.19000244140625,147.19000244140625,515,0.0,0.0
2024-06-24 13:20:00-04:00,146.97999572753906,146.97999572753906,146.97999572753906,146.97999572753906,171,0.0,0.0
2024-06-24 13:22:00-04:00,147.02000427246094,147.02000427246094,147.02000427246094,147.02000427246094,223,0.0,0.0
2024-06-24 13:23:00-04:00,146.99000549316406,146.99000549316406,146.99000549316406,146.99000549316406,366,0.0,0.0
2024-06-24 13:27:00-04:00,147.0800018310547,147.08999633789062,147.0800018310547,147.08999633789062,824,0.0,0.0
2024-06-24 13:29:00-04:00,147.0500030517578,147.0500030517578,147.0500030517578,147.0500030517578,598,0.0,0.0
2024-06-24 13:32:00-04:00,146.9600067138672,146.9600067138672,146.9600067138672,146.9600067138672,121,0.0,0.0
2024-06-24 13:33:00-04:00,146.94000244140625,146.9499969482422,146.94000244140625,146.9499969482422,212,0.0,0.0
2024-06-24 13:34:00-04:00,146.9499969482422,146.9499969482422,146.94000244140625,146.94000244140625,1088,0.0,0.0
2024-06-24 13:35:00-04:00,147.02999877929688,147.0500030517578,147.02999877929688,147.0500030517578,527,0.0,0.0
2024-06-24 13:37:00-04:00,147.08999633789062,147.08999633789062,147.08999633789062,147.08999633789062,122,0.0,0.0
2024-06-24 13:38:00-04:00,147.06500244140625,147.06500244140625,147.06500244140625,147.06500244140625,631,0.0,0.0
2024-06-24 13:39:00-04:00,147.13999938964844,147.13999938964844,147.13999938964844,147.13999938964844,565,0.0,0.0
2024-06-24 13:40:00-04:00,147.0500030517578,147.0500030517578,147.0500030517578,147.0500030517578,357,0.0,0.0
2024-06-24 13:41:00-04:00,146.99000549316406,147.0,146.99000549316406,147.0,295,0.0,0.0
2024-06-24 13:44:00-04:00,146.9250030517578,146.9250030517578,146.9250030517578,146.9250030517578,110,0.0,0.0
2024-06-24 13:45:00-04:00,146.83999633789062,146.83999633789062,146.83999633789062,146.83999633789062,957,0.0,0.0
2024-06-24 13:46:00-04:00,146.8800048828125,146.8800048828125,146.8800048828125,146.8800048828125,574,0.0,0.0
2024-06-24 13:50:00-04:00,146.72000122070312,146.72000122070312,146.72000122070312,146.72000122070312,145,0.0,0.0
2024-06-24 13:52:00-04:00,146.72000122070312,146.82989501953125,146.67999267578125,146.82989501953125,537,0.0,0.0
2024-06-24 13:57:00-04:00,146.75999450683594,146.8699951171875,146.75999450683594,146.8699951171875,1828,0.0,0.0
2024-06-24 14:00:00-04:00,146.75999450683594,146.80499267578125,146.75999450683594,146.80499267578125,370,0.0,0.0
2024-06-24 14:01:00-04:00,146.80999755859375,146.80999755859375,146.80999755859375,146.80999755859375,114,0.0,0.0
2024-06-24 14:02:00-04:00,146.72999572753906,146.72999572753906,146.72999572753906,146.72999572753906,501,0.0,0.0
2024-06-24 14:05:00-04:00,146.72999572753906,146.72999572753906,146.72999572753906,146.72999572753906,150,0.0,0.0
2024-06-24 14:07:00-04:00,146.75,146.75,146.72999572753906,146.72999572753906,511,0.0,0.0
2024-06-24 14:10:00-04:00,146.7949981689453,146.7949981689453,146.7949981689453,146.7949981689453,414,0.0,0.0
2024-06-24 14:12:00-04:00,146.85000610351562,146.86000061035156,146.8000030517578,146.8300018310547,3020,0.0,0.0
2024-06-24 14:13:00-04:00,146.82000732421875,146.82000732421875,146.82000732421875,146.82000732421875,260,0.0,0.0
2024-06-24 14:14:00-04:00,146.7899932861328,146.8074951171875,146.7899932861328,146.8074951171875,206,0.0,0.0
2024-06-24 14:15:00-04:00,146.80999755859375,146.80999755859375,146.80999755859375,146.80999755859375,278,0.0,0.0
2024-06-24 14:17:00-04:00,146.88999938964844,146.97999572753906,146.8800048828125,146.97000122070312,2027,0.0,0.0
2024-06-24 14:19:00-04:00,146.88999938964844,146.88999938964844,146.88999938964844,146.88999938964844,291,0.0,0.0
2024-06-24 14:22:00-04:00,146.91000366210938,146.91000366210938,146.8300018310547,146.85000610351562,2432,0.0,0.0
2024-06-24 14:23:00-04:00,146.8000030517578,146.8000030517578,146.8000030517578,146.8000030517578,237,0.0,0.0
2024-06-24 14:24:00-04:00,146.87399291992188,146.87399291992188,146.84010314941406,146.84010314941406,905,0.0,0.0
2024-06-24 14:30:00-04:00,146.89999389648438,146.9499969482422,146.89999389648438,146.9499969482422,1004,0.0,0.0
2024-06-24 14:31:00-04:00,146.98500061035156,146.98500061035156,146.98500061035156,146.98500061035156,100,0.0,0.0
2024-06-24 14:32:00-04:00,146.92999267578125,146.92999267578125,146.92999267578125,146.92999267578125,676,0.0,0.0
2024-06-24 14:38:00-04:00,147.0399932861328,147.05499267578125,147.0399932861328,147.05499267578125,893,0.0,0.0
2024-06-24 14:39:00-04:00,147.11000061035156,147.11000061035156,147.11000061035156,147.11000061035156,466,0.0,0.0
2024-06-24 14:41:00-04:00,147.1699981689453,147.1699981689453,147.12469482421875,147.12469482421875,665,0.0,0.0
2024-06-24 14:42:00-04:00,147.2100067138672,147.2100067138672,147.13999938964844,147.13999938964844,1415,0.0,0.0
2024-06-24 14:48:00-04:00,147.22999572753906,147.22999572753906,147.22999572753906,147.22999572753906,441,0.0,0.0
2024-06-24 14:51:00-04:00,147.1699981689453,147.1699981689453,147.1699981689453,147.1699981689453,183,0.0,0.0
2024-06-24 14:53:00-04:00,147.1999969482422,147.27000427246094,147.1999969482422,147.27000427246094,1585,0.0,0.0
2024-06-24 14:56:00-04:00,147.27999877929688,147.30799865722656,147.1999969482422,147.30799865722656,1168,0.0,0.0
2024-06-24 14:59:00-04:00,147.1300048828125,147.1300048828125,147.1300048828125,147.1300048828125,607,0.0,0.0
2024-06-24 15:02:00-04:00,147.02999877929688,147.02999877929688,147.02999877929688,147.02999877929688,944,0.0,0.0
2024-06-24 15:11:00-04:00,146.97000122070312,146.97000122070312,146.97000122070312,146.97000122070312,118,0.0,0.0
2024-06-24 15:12:00-04:00,147.02000427246094,147.02000427246094,147.02000427246094,147.02000427246094,344,0.0,0.0
2024-06-24 15:15:00-04:00,146.9199981689453,146.9199981689453,146.9199981689453,146.9199981689453,152,0.0,0.0
2024-06-24 15:16:00-04:00,146.9199981689453,146.9199981689453,146.88999938964844,146.88999938964844,898,0.0,0.0
2024-06-24 15:17:00-04:00,146.83999633789062,146.83999633789062,146.83999633789062,146.83999633789062,115,0.0,0.0
2024-06-24 15:18:00-04:00,146.82000732421875,146.82000732421875,146.82000732421875,146.82000732421875,416,0.0,0.0
2024-06-24 15:21:00-04:00,146.8000030517578,146.92999267578125,146.8000030517578,146.9199981689453,2942,0.0,0.0
2024-06-24 15:22:00-04:00,146.89999389648438,146.89999389648438,146.89999389648438,146.89999389648438,826,0.0,0.0
2024-06-24 15:24:00-04:00,146.85000610351562,146.85000610351562,146.85000610351562,146.85000610351562,619,0.0,0.0
2024-06-24 15:27:00-04:00,146.8699951171875,146.89999389648438,146.8699951171875,146.89999389648438,898,0.0,0.0
2024-06-24 15:33:00-04:00,146.82000732421875,146.8699951171875,146.82000732421875,146.8699951171875,626,0.0,0.0
2024-06-24 15:34:00-04:00,146.8300018310547,146.8300018310547,146.8300018310547,146.8300018310547,417,0.0,0.0
2024-06-24 15:36:00-04:00,146.8300018310547,146.8300018310547,146.8300018310547,146.8300018310547,188,0.0,0.0
2024-06-24 15:37:00-04:00,146.8300018310547,146.8300018310547,146.8300018310547,146.8300018310547,734,0.0,0.0
2024-06-24 15:39:00-04:00,146.8800048828125,146.8800048828125,146.8800048828125,146.8800048828125,886,0.0,0.0
2024-06-24 15:40:00-04:00,146.86500549316406,146.86500549316406,146.82000732421875,146.83999633789062,517,0.0,0.0
2024-06-24 15:41:00-04:00,146.7899932861328,146.7899932861328,146.7899932861328,146.7899932861328,762,0.0,0.0
2024-06-24 15:43:00-04:00,146.8699951171875,146.8699951171875,146.8699951171875,146.8699951171875,758,0.0,0.0
2024-06-24 15:45:00-04:00,146.88999938964844,146.88999938964844,146.88999938964844,146.88999938964844,113,0.0,0.0
2024-06-24 15:46:00-04:00,146.85000610351562,146.85000610351562,146.85000610351562,146.85000610351562,576,0.0,0.0
2024-06-24 15:47:00-04:00,146.8800048828125,146.9093017578125,146.8699951171875,146.9093017578125,741,0.0,0.0
2024-06-24 15:48:00-04:00,146.86000061035156,146.8800048828125,146.86000061035156,146.8800048828125,403,0.0,0.0
2024-06-24 15:49:00-04:00,146.8699951171875,146.8699951171875,146.86000061035156,146.86000061035156,799,0.0,0.0
2024-06-24 15:50:00-04:00,146.85000610351562,146.8800048828125,146.7449951171875,146.7449951171875,2341,0.0,0.0
2024-06-24 15:51:00-04:00,146.75,146.82000732421875,146.75,146.77000427246094,3571,0.0,0.0
2024-06-24 15:52:00-04:00,146.77999877929688,146.77999877929688,146.74000549316406,146.74000549316406,1757,0.0,0.0
2024-06-24 15:53:00-04:00,146.7100067138672,146.83999633789062,146.7100067138672,146.83999633789062,3285,0.0,0.0
2024-06-24 15:54:00-04:00,146.8300018310547,146.85000610351562,146.8000030517578,146.85000610351562,1758,0.0,0.0
2024-06-24 15:55:00-04:00,146.7899932861328,146.7899932861328,146.6699981689453,146.6999969482422,5302,0.0,0.0
2024-06-24 15:56:00-04:00,146.72000122070312,146.75999450683594,146.69500732421875,146.75999450683594,4683,0.0,0.0
2024-06-24 15:57:00-04:00,146.8800048828125,146.8800048828125,146.85000610351562,146.86000061035156,3273,0.0,0.0
2024-06-24 15:58:00-04:00,146.8699951171875,146.91000366210938,146.85000610351562,146.85000610351562,2109,0.0,0.0
2024-06-24 15:59:00-04:00,146.88999938964844,146.89999389648438,146.6999969482422,146.7100067138672,12667,0.0,0.0
2024-06-25 09:30:00-04:00,146.7899932861328,146.7899932861328,146.7899932861328,146.7899932861328,1188,0.0,0.0
2024-06-25 09:31:00-04:00,145.7100067138672,145.7100067138672,145.7100067138672,145.7100067138672,298,0.0,0.0
2024-06-25 09:34:00-04:00,146.68499755859375,146.68499755859375,146.68499755859375,146.68499755859375,365,0.0,0.0
2024-06-25 09:37:00-04:00,146.5399932861328,146.5399932861328,146.5399932861328,146.5399932861328,122,0.0,0.0
2024-06-25 09:39:00-04:00,145.83999633789062,145.83999633789062,145.83999633789062,145.83999633789062,509,0.0,0.0
2024-06-25 09:46:00-04:00,146.0399932861328,146.0399932861328,145.9199981689453,145.9199981689453,370,0.0,0.0
2024-06-25 09:48:00-04:00,146.41000366210938,146.8000030517578,146.36000061035156,146.36000061035156,989,0.0,0.0
2024-06-25 09:53:00-04:00,146.52000427246094,146.52000427246094,146.52000427246094,146.52000427246094,171,0.0,0.0
2024-06-25 09:55:00-04:00,146.4600067138672,146.4600067138672,145.75999450683594,146.17999267578125,1722,0.0,0.0
2024-06-25 09:56:00-04:00,146.18499755859375,146.18499755859375,146.18499755859375,146.18499755859375,425,0.0,0.0
2024-06-25 10:03:00-04:00,146.42999267578125,146.42999267578125,146.42999267578125,146.42999267578125,166,0.0,0.0
2024-06-25 10:04:00-04:00,146.18499755859375,146.18499755859375,146.18499755859375,146.18499755859375,248,0.0,0.0
2024-06-25 10:07:00-04:00,146.44000244140625,146.44000244140625,145.92999267578125,145.92999267578125,769,0.0,0.0
2024-06-25 10:17:00-04:00,146.1199951171875,146.1999969482422,146.1199951171875,146.17999267578125,430,0.0,0.0
2024-06-25 10:18:00-04:00,146.19000244140625,146.19000244140625,146.17999267578125,146.17999267578125,756,0.0,0.0
2024-06-25 10:19:00-04:00,146.19000244140625,146.19000244140625,145.91000366210938,145.91000366210938,1674,0.0,0.0
2024-06-25 10:20:00-04:00,145.82000732421875,145.82000732421875,145.82000732421875,145.82000732421875,148,0.0,0.0
2024-06-25 10:21:00-04:00,145.75999450683594,145.94000244140625,145.75999450683594,145.94000244140625,985,0.0,0.0
2024-06-25 10:22:00-04:00,145.75999450683594,145.75999450683594,145.75999450683594,145.75999450683594,439,0.0,0.0
2024-06-25 10:23:00-04:00,145.75999450683594,145.75999450683594,145.75,145.75999450683594,572,0.0,0.0
2024-06-25 10:24:00-04:00,145.6699981689453,145.6699981689453,145.6699981689453,145.6699981689453,537,0.0,0.0
2024-06-25 10:25:00-04:00,145.6300048828125,145.6300048828125,145.50999450683594,145.50999450683594,630,0.0,0.0
2024-06-25 10:26:00-04:00,145.3699951171875,145.3800048828125,145.3000030517578,145.3000030517578,725,0.0,0.0
2024-06-25 10:29:00-04:00,145.3000030517578,145.3000030517578,145.3000030517578,145.3000030517578,694,0.0,0.0
2024-06-25 10:36:00-04:00,144.94000244140625,144.94000244140625,144.94000244140625,144.94000244140625,553,0.0,0.0
2024-06-25 10:44:00-04:00,145.0399932861328,145.0399932861328,145.0399932861328,145.0399932861328,427,0.0,0.0
2024-06-25 10:47:00-04:00,145.0,145.0,144.97999572753906,144.97999572753906,478,0.0,0.0
2024-06-25 10:52:00-04:00,145.02999877929688,145.02999877929688,145.02999877929688,145.02999877929688,576,0.0,0.0
2024-06-25 10:53:00-04:00,145.16000366210938,145.16000366210938,145.16000366210938,145.16000366210938,864,0.0,0.0
2024-06-25 10:54:00-04:00,145.1649932861328,145.1649932861328,145.1649932861328,145.1649932861328,409,0.0,0.0
2024-06-25 10:55:00-04:00,145.1649932861328,145.1649932861328,145.1649932861328,145.1649932861328,2364,0.0,0.0
2024-06-25 11:00:00-04:00,145.3000030517578,145.3000030517578,145.25,145.25,667,0.0,0.0
2024-06-25 11:01:00-04:00,145.47500610351562,145.47500610351562,145.47500610351562,145.47500610351562,538,0.0,0.0
2024-06-25 11:02:00-04:00,145.47999572753906,145.47999572753906,145.47999572753906,145.47999572753906,261,0.0,0.0
2024-06-25 11:03:00-04:00,145.48500061035156,145.64999389648438,145.48500061035156,145.52000427246094,1769,0.0,0.0
2024-06-25 11:04:00-04:00,145.61500549316406,145.66000366210938,145.61500549316406,145.66000366210938,328,0.0,0.0
2024-06-25 11:06:00-04:00,145.6300048828125,145.73500061035156,145.6300048828125,145.73500061035156,800,0.0,0.0
2024-06-25 11:07:00-04:00,145.73500061035156,145.83999633789062,145.33999633789062,145.33999633789062,4588,0.0,0.0
2024-06-25 11:08:00-04:00,145.25,145.25,145.25,145.25,253,0.0,0.0
2024-06-25 11:10:00-04:00,145.1999969482422,145.1999969482422,144.8699951171875,145.15249633789062,7269,0.0,0.0
2024-06-25 11:11:00-04:00,145.3300018310547,145.3300018310547,145.3300018310547,145.3300018310547,410,0.0,0.0
2024-06-25 11:12:00-04:00,145.47999572753906,145.47999572753906,145.47999572753906,145.47999572753906,300,0.0,0.0
2024-06-25 11:16:00-04:00,145.24000549316406,145.24000549316406,145.24000549316406,145.24000549316406,406,0.0,0.0
2024-06-25 11:18:00-04:00,145.47000122070312,145.47000122070312,145.47000122070312,145.47000122070312,781,0.0,0.0
2024-06-25 11:24:00-04:00,145.24000549316406,145.24000549316406,145.24000549316406,145.24000549316406,818,0.0,0.0
2024-06-25 11:32:00-04:00,145.1999969482422,145.1999969482422,145.1999969482422,145.1999969482422,289,0.0,0.0
2024-06-25 11:33:00-04:00,145.2100067138672,145.2100067138672,145.2100067138672,145.2100067138672,438,0.0,0.0
2024-06-25 11:37:00-04:00,145.24000549316406,145.2899932861328,145.1699981689453,145.25,1435,0.0,0.0
2024-06-25 11:40:00-04:00,145.1199951171875,145.1199951171875,145.1199951171875,145.1199951171875,188,0.0,0.0
2024-06-25 11:42:00-04:00,145.1199951171875,145.16000366210938,145.08999633789062,145.08999633789062,747,0.0,0.0
2024-06-25 11:44:00-04:00,145.08999633789062,145.10000610351562,145.08999633789062,145.10000610351562,1053,0.0,0.0
2024-06-25 11:49:00-04:00,145.10000610351562,145.10000610351562,145.10000610351562,145.10000610351562,235,0.0,0.0
2024-06-25 11:50:00-04:00,145.10000610351562,145.10000610351562,145.02000427246094,145.02000427246094,1388,0.0,0.0
2024-06-25 11:55:00-04:00,145.04989624023438,145.04989624023438,145.04989624023438,145.04989624023438,650,0.0,0.0
2024-06-25 12:02:00-04:00,144.85000610351562,144.85000610351562,144.85000610351562,144.85000610351562,547,0.0,0.0
2024-06-25 12:04:00-04:00,144.92999267578125,144.92999267578125,144.92999267578125,144.92999267578125,1343,0.0,0.0
2024-06-25 12:05:00-04:00,144.9600067138672,144.9600067138672,144.75999450683594,144.75999450683594,3149,0.0,0.0
2024-06-25 12:20:00-04:00,144.5800018310547,144.6300048828125,144.5800018310547,144.6300048828125,637,0.0,0.0
2024-06-25 12:22:00-04:00,144.74000549316406,144.74000549316406,144.6750030517578,144.6750030517578,804,0.0,0.0
2024-06-25 12:25:00-04:00,144.6300048828125,144.6300048828125,144.6300048828125,144.6300048828125,717,0.0,0.0
2024-06-25 12:28:00-04:00,144.64999389648438,144.64999389648438,144.64999389648438,144.64999389648438,364,0.0,0.0
2024-06-25 12:31:00-04:00,144.6300048828125,144.6300048828125,144.6300048828125,144.6300048828125,907,0.0,0.0
2024-06-25 12:43:00-04:00,144.66000366210938,144.66000366210938,144.57000732421875,144.57000732421875,578,0.0,0.0
2024-06-25 12:44:00-04:00,144.57000732421875,144.57000732421875,144.57000732421875,144.57000732421875,291,0.0,0.0
2024-06-25 12:46:00-04:00,144.6999969482422,144.6999969482422,144.6999969482422,144.6999969482422,241,0.0,0.0
2024-06-25 12:48:00-04:00,144.52000427246094,144.52000427246094,144.52000427246094,144.52000427246094,233,0.0,0.0
2024-06-25 12:50:00-04:00,144.50999450683594,144.50999450683594,144.50999450683594,144.50999450683594,186,0.0,0.0
2024-06-25 12:55:00-04:00,144.55599975585938,144.55599975585938,144.55599975585938,144.55599975585938,704,0.0,0.0
2024-06-25 13:02:00-04:00,144.60000610351562,144.60000610351562,144.5800018310547,144.5800018310547,732,0.0,0.0
2024-06-25 13:03:00-04:00,144.5,144.5,144.5,144.5,699,0.0,0.0
2024-06-25 13:12:00-04:00,144.6199951171875,144.6199951171875,144.6199951171875,144.6199951171875,448,0.0,0.0
2024-06-25 13:13:00-04:00,144.60000610351562,144.60000610351562,144.60000610351562,144.60000610351562,210,0.0,0.0
2024-06-25 13:16:00-04:00,144.58999633789062,144.58999633789062,144.58999633789062,144.58999633789062,402,0.0,0.0
2024-06-25 13:27:00-04:00,144.6999969482422,144.6999969482422,144.63499450683594,144.63499450683594,545,0.0,0.0
2024-06-25 13:31:00-04:00,144.64999389648438,144.64999389648438,144.64999389648438,144.64999389648438,644,0.0,0.0
2024-06-25 13:45:00-04:00,144.7899932861328,144.7899932861328,144.7899932861328,144.7899932861328,290,0.0,0.0
2024-06-25 13:51:00-04:00,144.7899932861328,144.7899932861328,144.7899932861328,144.7899932861328,141,0.0,0.0
2024-06-25 13:52:00-04:00,144.7899932861328,144.9499969482422,144.7899932861328,144.9499969482422,1395,0.0,0.0
2024-06-25 13:53:00-04:00,144.9499969482422,144.9499969482422,144.82000732421875,144.88999938964844,2900,0.0,0.0
2024-06-25 14:04:00-04:00,144.77999877929688,144.77999877929688,144.77000427246094,144.77000427246094,778,0.0,0.0
2024-06-25 14:10:00-04:00,144.91000366210938,144.91000366210938,144.91000366210938,144.91000366210938,455,0.0,0.0
2024-06-25 14:13:00-04:00,144.9199981689453,144.9600067138672,144.9199981689453,144.9600067138672,783,0.0,0.0
2024-06-25 14:15:00-04:00,144.88999938964844,144.88999938964844,144.88999938964844,144.88999938964844,1050,0.0,0.0
2024-06-25 14:28:00-04:00,145.00999450683594,145.00999450683594,145.0,145.0,764,0.0,0.0
2024-06-25 14:30:00-04:00,145.0500030517578,145.0500030517578,145.0500030517578,145.0500030517578,896,0.0,0.0
2024-06-25 14:34:00-04:00,145.05499267578125,145.05499267578125,144.94000244140625,144.94000244140625,1575,0.0,0.0
2024-06-25 14:39:00-04:00,144.85000610351562,144.85000610351562,144.85000610351562,144.85000610351562,419,0.0,0.0
2024-06-25 14:42:00-04:00,144.75,144.75,144.75,144.75,104,0.0,0.0
2024-06-25 14:43:00-04:00,144.75,144.84500122070312,144.75,144.84500122070312,483,0.0,0.0
2024-06-25 14:47:00-04:00,144.8350067138672,144.8350067138672,144.8350067138672,144.8350067138672,192,0.0,0.0
2024-06-25 14:48:00-04:00,144.8249969482422,144.8249969482422,144.8249969482422,144.8249969482422,479,0.0,0.0
2024-06-25 14:49:00-04:00,144.7100067138672,144.8000030517578,144.7100067138672,144.77000427246094,6112,0.0,0.0
2024-06-25 14:50:00-04:00,144.7100067138672,144.77000427246094,144.7050018310547,144.7050018310547,1145,0.0,0.0
2024-06-25 14:51:00-04:00,144.75,144.75,144.75,144.75,103,0.0,0.0
2024-06-25 14:52:00-04:00,144.75999450683594,144.77999877929688,144.6750030517578,144.77999877929688,1650,0.0,0.0
2024-06-25 14:54:00-04:00,144.77999877929688,144.77999877929688,144.77999877929688,144.77999877929688,209,0.0,0.0
2024-06-25 14:57:00-04:00,144.7949981689453,144.7949981689453,144.7949981689453,144.7949981689453,952,0.0,0.0
2024-06-25 15:05:00-04:00,144.6999969482422,144.6999969482422,144.6999969482422,144.6999969482422,758,0.0,0.0
2024-06-25 15:09:00-04:00,144.89500427246094,144.89500427246094,144.89500427246094,144.89500427246094,187,0.0,0.0
2024-06-25 15:11:00-04:00,144.99000549316406,144.99000549316406,144.92999267578125,144.92999267578125,449,0.0,0.0
2024-06-25 15:12:00-04:00,144.92999267578125,144.92999267578125,144.92999267578125,144.92999267578125,521,0.0,0.0
2024-06-25 15:15:00-04:00,144.91000366210938,144.91000366210938,144.91000366210938,144.91000366210938,1241,0.0,0.0
2024-06-25 15:19:00-04:00,144.89999389648438,144.94000244140625,144.89999389648438,144.89999389648438,1602,0.0,0.0
2024-06-25 15:20:00-04:00,144.88999938964844,144.88999938964844,144.88999938964844,144.88999938964844,280,0.0,0.0
2024-06-25 15:22:00-04:00,144.88999938964844,144.88999938964844,144.88999938964844,144.88999938964844,425,0.0,0.0
2024-06-25 15:23:00-04:00,144.97999572753906,145.02000427246094,144.9375,144.97000122070312,2397,0.0,0.0
2024-06-25 15:24:00-04:00,144.9149932861328,144.9149932861328,144.9149932861328,144.9149932861328,175,0.0,0.0
2024-06-25 15:26:00-04:00,144.92750549316406,144.92750549316406,144.92750549316406,144.92750549316406,298,0.0,0.0
2024-06-25 15:27:00-04:00,144.9149932861328,144.9149932861328,144.9149932861328,144.9149932861328,101,0.0,0.0
2024-06-25 15:28:00-04:00,144.9600067138672,144.9600067138672,144.9149932861328,144.9499969482422,947,0.0,0.0
2024-06-25 15:29:00-04:00,144.9550018310547,144.9550018310547,144.9550018310547,144.9550018310547,323,0.0,0.0
2024-06-25 15:30:00-04:00,144.9199981689453,144.9199981689453,144.7949981689453,144.7949981689453,2237,0.0,0.0
2024-06-25 15:31:00-04:00,144.77999877929688,144.77999877929688,144.75999450683594,144.77999877929688,1490,0.0,0.0
2024-06-25 15:32:00-04:00,144.8000030517578,144.8000030517578,144.8000030517578,144.8000030517578,367,0.0,0.0
2024-06-25 15:35:00-04:00,144.88999938964844,144.88999938964844,144.88999938964844,144.88999938964844,404,0.0,0.0
2024-06-25 15:36:00-04:00,144.8699951171875,144.8699951171875,144.8699951171875,144.8699951171875,585,0.0,0.0
2024-06-25 15:37:00-04:00,144.9149932861328,144.9149932861328,144.9149932861328,144.9149932861328,235,0.0,0.0
2024-06-25 15:38:00-04:00,144.9499969482422,144.9499969482422,144.9499969482422,144.9499969482422,584,0.0,0.0
2024-06-25 15:39:00-04:00,144.9250030517578,144.94500732421875,144.9250030517578,144.94500732421875,602,0.0,0.0
2024-06-25 15:41:00-04:00,144.9600067138672,144.9600067138672,144.9600067138672,144.9600067138672,227,0.0,0.0
2024-06-25 15:42:00-04:00,144.9600067138672,144.9600067138672,144.9199981689453,144.9199981689453,1398,0.0,0.0
2024-06-25 15:44:00-04:00,144.88999938964844,144.88999938964844,144.88999938964844,144.88999938964844,110,0.0,0.0
2024-06-25 15:45:00-04:00,144.92999267578125,144.92999267578125,144.92999267578125,144.92999267578125,353,0.0,0.0
2024-06-25 15:46:00-04:00,144.94000244140625,144.99000549316406,144.92999267578125,144.92999267578125,1512,0.0,0.0
2024-06-25 15:47:00-04:00,144.99000549316406,145.17999267578125,144.99000549316406,145.17999267578125,1901,0.0,0.0
2024-06-25 15:48:00-04:00,145.17999267578125,145.1999969482422,145.0675048828125,145.0675048828125,2852,0.0,0.0
2024-06-25 15:49:00-04:00,145.1199951171875,145.1199951171875,145.0500030517578,145.0500030517578,1310,0.0,0.0
2024-06-25 15:50:00-04:00,144.94500732421875,144.9550018310547,144.94500732421875,144.9550018310547,978,0.0,0.0
2024-06-25 15:51:00-04:00,144.94000244140625,144.98500061035156,144.94000244140625,144.98500061035156,466,0.0,0.0
2024-06-25 15:52:00-04:00,145.02999877929688,145.11000061035156,145.02999877929688,145.10000610351562,1167,0.0,0.0
2024-06-25 15:53:00-04:00,145.11000061035156,145.11749267578125,145.03500366210938,145.03500366210938,1764,0.0,0.0
2024-06-25 15:54:00-04:00,145.0399932861328,145.0399932861328,145.02499389648438,145.02499389648438,1759,0.0,0.0
2024-06-25 15:55:00-04:00,144.9600067138672,144.9600067138672,144.9600067138672,144.9600067138672,1665,0.0,0.0
2024-06-25 15:56:00-04:00,144.92999267578125,144.94500732421875,144.86000061035156,144.8699951171875,3954,0.0,0.0
2024-06-25 15:57:00-04:00,144.86000061035156,144.99000549316406,144.85000610351562,144.99000549316406,1299,0.0,0.0
2024-06-25 15:58:00-04:00,144.89999389648438,144.9499969482422,144.85499572753906,144.85499572753906,5111,0.0,0.0
2024-06-25 15:59:00-04:00,144.8300018310547,144.91000366210938,144.82000732421875,144.88999938964844,8474,0.0,0.0
2024-06-26 09:30:00-04:00,144.52499389648438,144.52499389648438,144.52499389648438,144.52499389648438,1698,0.0,0.0
2024-06-26 09:36:00-04:00,144.78500366210938,144.78500366210938,144.78500366210938,144.78500366210938,403,0.0,0.0
2024-06-26 09:52:00-04:00,144.64500427246094,144.64500427246094,144.64500427246094,144.64500427246094,446,0.0,0.0
2024-06-26 09:57:00-04:00,144.24000549316406,144.3000030517578,143.7899932861328,143.7899932861328,2089,0.0,0.0
2024-06-26 09:59:00-04:00,144.14999389648438,144.14999389648438,144.14999389648438,144.14999389648438,305,0.0,0.0
2024-06-26 10:04:00-04:00,144.05499267578125,144.05499267578125,144.05499267578125,144.05499267578125,482,0.0,0.0
2024-06-26 10:06:00-04:00,143.77999877929688,143.9199981689453,143.41000366210938,143.41000366210938,1407,0.0,0.0
2024-06-26 10:07:00-04:00,143.7550048828125,143.7550048828125,143.7550048828125,143.7550048828125,138,0.0,0.0
2024-06-26 10:08:00-04:00,143.3000030517578,143.3000030517578,142.9600067138672,143.0800018310547,801,0.0,0.0
2024-06-26 10:09:00-04:00,143.375,143.375,143.375,143.375,164,0.0,0.0
2024-06-26 10:10:00-04:00,143.375,143.375,143.375,143.375,268,0.0,0.0
2024-06-26 10:17:00-04:00,143.4149932861328,143.4149932861328,143.4149932861328,143.4149932861328,759,0.0,0.0
2024-06-26 10:32:00-04:00,143.2899932861328,143.2899932861328,143.02000427246094,143.02000427246094,1186,0.0,0.0
2024-06-26 10:34:00-04:00,143.2239990234375,143.2239990234375,143.2239990234375,143.2239990234375,258,0.0,0.0
2024-06-26 10:36:00-04:00,143.18499755859375,143.22999572753906,143.18499755859375,143.22999572753906,604,0.0,0.0
2024-06-26 10:37:00-04:00,143.16000366210938,143.47000122070312,143.16000366210938,143.27999877929688,3467,0.0,0.0
2024-06-26 10:40:00-04:00,143.3300018310547,143.3300018310547,143.3300018310547,143.3300018310547,354,0.0,0.0
2024-06-26 10:45:00-04:00,143.53500366210938,143.53500366210938,143.53500366210938,143.53500366210938,345,0.0,0.0
2024-06-26 10:48:00-04:00,143.53500366210938,143.69000244140625,143.53500366210938,143.61000061035156,1190,0.0,0.0
2024-06-26 10:56:00-04:00,143.5449981689453,143.5449981689453,143.5449981689453,143.5449981689453,479,0.0,0.0
2024-06-26 10:57:00-04:00,143.69000244140625,143.69000244140625,143.69000244140625,143.69000244140625,835,0.0,0.0
2024-06-26 11:04:00-04:00,143.63999938964844,143.63999938964844,143.63999938964844,143.63999938964844,1259,0.0,0.0
2024-06-26 11:16:00-04:00,143.66000366210938,143.66000366210938,143.66000366210938,143.66000366210938,314,0.0,0.0
2024-06-26 11:17:00-04:00,143.75,143.75,143.75,143.75,251,0.0,0.0
2024-06-26 11:18:00-04:00,143.8300018310547,143.8300018310547,143.75,143.75,651,0.0,0.0
2024-06-26 11:22:00-04:00,143.8800048828125,143.8800048828125,143.8800048828125,143.8800048828125,835,0.0,0.0
2024-06-26 11:37:00-04:00,143.85000610351562,143.85000610351562,143.83999633789062,143.83999633789062,1726,0.0,0.0
2024-06-26 11:39:00-04:00,143.88999938964844,143.94000244140625,143.88999938964844,143.94000244140625,767,0.0,0.0
2024-06-26 11:43:00-04:00,144.0399932861328,144.0399932861328,144.0399932861328,144.0399932861328,639,0.0,0.0
2024-06-26 11:54:00-04:00,144.1199951171875,144.1199951171875,144.1199951171875,144.1199951171875,563,0.0,0.0
2024-06-26 11:55:00-04:00,144.19500732421875,144.19500732421875,144.11000061035156,144.11000061035156,894,0.0,0.0
2024-06-26 12:08:00-04:00,144.11000061035156,144.11000061035156,144.11000061035156,144.11000061035156,314,0.0,0.0
2024-06-26 12:10:00-04:00,144.00999450683594,144.00999450683594,144.00999450683594,144.00999450683594,710,0.0,0.0
2024-06-26 12:14:00-04:00,144.18679809570312,144.18679809570312,144.02999877929688,144.02999877929688,700,0.0,0.0
2024-06-26 12:16:00-04:00,144.02999877929688,144.02999877929688,144.02999877929688,144.02999877929688,176,0.0,0.0
2024-06-26 12:25:00-04:00,143.9949951171875,143.9949951171875,143.9949951171875,143.9949951171875,104,0.0,0.0
2024-06-26 12:26:00-04:00,144.0,144.0,144.0,144.0,139,0.0,0.0
2024-06-26 12:27:00-04:00,144.00999450683594,144.00999450683594,144.0,144.0,594,0.0,0.0
2024-06-26 12:31:00-04:00,143.8800048828125,143.8800048828125,143.8800048828125,143.8800048828125,303,0.0,0.0
2024-06-26 12:32:00-04:00,143.86500549316406,143.86500549316406,143.86500549316406,143.86500549316406,236,0.0,0.0
2024-06-26 12:33:00-04:00,143.93260192871094,143.93260192871094,143.75,143.75,3595,0.0,0.0
2024-06-26 12:41:00-04:00,143.75149536132812,143.75149536132812,143.75149536132812,143.75149536132812,345,0.0,0.0
2024-06-26 12:45:00-04:00,143.8300018310547,143.88999938964844,143.8300018310547,143.88999938964844,256,0.0,0.0
2024-06-26 12:46:00-04:00,143.88999938964844,143.88999938964844,143.83999633789062,143.85000610351562,1144,0.0,0.0
2024-06-26 12:48:00-04:00,143.94000244140625,143.99000549316406,143.89500427246094,143.89500427246094,1406,0.0,0.0
2024-06-26 12:55:00-04:00,143.9499969482422,143.9499969482422,143.9499969482422,143.9499969482422,505,0.0,0.0
2024-06-26 13:08:00-04:00,143.94000244140625,143.94000244140625,143.94000244140625,143.94000244140625,146,0.0,0.0
2024-06-26 13:09:00-04:00,143.94000244140625,143.94000244140625,143.94000244140625,143.94000244140625,102,0.0,0.0
2024-06-26 13:10:00-04:00,143.9499969482422,143.9499969482422,143.9499969482422,143.9499969482422,394,0.0,0.0
2024-06-26 13:13:00-04:00,143.8699951171875,143.8699951171875,143.8699951171875,143.8699951171875,1197,0.0,0.0
2024-06-26 13:20:00-04:00,143.8699951171875,143.8699951171875,143.85000610351562,143.85000610351562,511,0.0,0.0
2024-06-26 13:26:00-04:00,143.72000122070312,143.72000122070312,143.72000122070312,143.72000122070312,229,0.0,0.0
2024-06-26 13:29:00-04:00,143.6999969482422,143.6999969482422,143.6999969482422,143.6999969482422,333,0.0,0.0
2024-06-26 13:35:00-04:00,143.6699981689453,143.6699981689453,143.6699981689453,143.6699981689453,345,0.0,0.0
2024-06-26 13:38:00-04:00,143.60000610351562,143.60000610351562,143.60000610351562,143.60000610351562,366,0.0,0.0
2024-06-26 13:46:00-04:00,143.4499969482422,143.4499969482422,143.4499969482422,143.4499969482422,211,0.0,0.0
2024-06-26 13:48:00-04:00,143.49349975585938,143.49349975585938,143.33999633789062,143.33999633789062,853,0.0,0.0
2024-06-26 13:49:00-04:00,143.33999633789062,143.33999633789062,143.19000244140625,143.1999969482422,1941,0.0,0.0
2024-06-26 13:50:00-04:00,143.3000030517578,143.4600067138672,143.3000030517578,143.3000030517578,1143,0.0,0.0
2024-06-26 13:52:00-04:00,143.36000061035156,143.36000061035156,143.36000061035156,143.36000061035156,391,0.0,0.0
2024-06-26 14:01:00-04:00,143.3800048828125,143.3800048828125,143.35000610351562,143.35000610351562,742,0.0,0.0
2024-06-26 14:03:00-04:00,143.4149932861328,143.4149932861328,143.4149932861328,143.4149932861328,490,0.0,0.0
2024-06-26 14:07:00-04:00,143.33399963378906,143.33399963378906,143.33399963378906,143.33399963378906,214,0.0,0.0
2024-06-26 14:09:00-04:00,143.35800170898438,143.35800170898438,143.35800170898438,143.35800170898438,383,0.0,0.0
2024-06-26 14:10:00-04:00,143.476806640625,143.476806640625,143.38499450683594,143.38499450683594,530,0.0,0.0
2024-06-26 14:11:00-04:00,143.5198974609375,143.5198974609375,143.30999755859375,143.30999755859375,2744,0.0,0.0
2024-06-26 14:18:00-04:00,143.3800048828125,143.3800048828125,143.3800048828125,143.3800048828125,241,0.0,0.0
2024-06-26 14:20:00-04:00,143.42320251464844,143.42320251464844,143.42320251464844,143.42320251464844,1328,0.0,0.0
2024-06-26 14:24:00-04:00,143.5,143.52000427246094,143.5,143.52000427246094,1372,0.0,0.0
2024-06-26 14:28:00-04:00,143.47999572753906,143.47999572753906,143.4600067138672,143.47999572753906,1708,0.0,0.0
2024-06-26 14:36:00-04:00,143.41000366210938,143.41000366210938,143.35000610351562,143.35000610351562,686,0.0,0.0
2024-06-26 14:37:00-04:00,143.25999450683594,143.4600067138672,143.25999450683594,143.4600067138672,1363,0.0,0.0
2024-06-26 14:38:00-04:00,143.55880737304688,143.55880737304688,143.44000244140625,143.44000244140625,260,0.0,0.0
2024-06-26 14:40:00-04:00,143.49000549316406,143.5,143.49000549316406,143.5,550,0.0,0.0
2024-06-26 14:41:00-04:00,143.49000549316406,143.49000549316406,143.49000549316406,143.49000549316406,467,0.0,0.0
2024-06-26 14:45:00-04:00,143.5050048828125,143.5050048828125,143.5050048828125,143.5050048828125,791,0.0,0.0
2024-06-26 14:46:00-04:00,143.50999450683594,143.50999450683594,143.50999450683594,143.50999450683594,519,0.0,0.0
2024-06-26 14:47:00-04:00,143.52999877929688,143.55999755859375,143.4199981689453,143.49000549316406,1585,0.0,0.0
2024-06-26 14:52:00-04:00,143.5,143.5,143.49000549316406,143.49049377441406,922,0.0,0.0
2024-06-26 14:57:00-04:00,143.53250122070312,143.53250122070312,143.47000122070312,143.47000122070312,1101,0.0,0.0
2024-06-26 15:06:00-04:00,143.44000244140625,143.44000244140625,143.28500366210938,143.28500366210938,1588,0.0,0.0
2024-06-26 15:11:00-04:00,143.36000061035156,143.39999389648438,143.36000061035156,143.39999389648438,1856,0.0,0.0
2024-06-26 15:18:00-04:00,143.33999633789062,143.33999633789062,143.33999633789062,143.33999633789062,314,0.0,0.0
2024-06-26 15:20:00-04:00,143.3350067138672,143.38999938964844,143.3350067138672,143.38999938964844,1131,0.0,0.0
2024-06-26 15:21:00-04:00,143.36000061035156,143.36000061035156,143.36000061035156,143.36000061035156,854,0.0,0.0
2024-06-26 15:24:00-04:00,143.39120483398438,143.39120483398438,143.3800048828125,143.3800048828125,365,0.0,0.0
2024-06-26 15:25:00-04:00,143.36000061035156,143.41000366210938,143.36000061035156,143.41000366210938,1089,0.0,0.0
2024-06-26 15:29:00-04:00,143.36000061035156,143.36000061035156,143.35000610351562,143.35000610351562,313,0.0,0.0
2024-06-26 15:30:00-04:00,143.3300018310547,143.33999633789062,143.3300018310547,143.33999633789062,427,0.0,0.0
2024-06-26 15:32:00-04:00,143.2899932861328,143.2899932861328,143.2899932861328,143.2899932861328,438,0.0,0.0
2024-06-26 15:35:00-04:00,143.35000610351562,143.39700317382812,143.34500122070312,143.39700317382812,522,0.0,0.0
2024-06-26 15:37:00-04:00,143.34500122070312,143.5,143.34500122070312,143.49749755859375,1252,0.0,0.0
2024-06-26 15:39:00-04:00,143.41000366210938,143.43499755859375,143.38999938964844,143.4199981689453,2035,0.0,0.0
2024-06-26 15:44:00-04:00,143.38999938964844,143.38999938964844,143.3699951171875,143.3699951171875,625,0.0,0.0
2024-06-26 15:46:00-04:00,143.36000061035156,143.36000061035156,143.36000061035156,143.36000061035156,389,0.0,0.0
2024-06-26 15:47:00-04:00,143.35000610351562,143.35000610351562,143.35000610351562,143.35000610351562,371,0.0,0.0
2024-06-26 15:49:00-04:00,143.36000061035156,143.3820037841797,143.32000732421875,143.32000732421875,1276,0.0,0.0
2024-06-26 15:50:00-04:00,143.38999938964844,143.5500030517578,143.3800048828125,143.52499389648438,2857,0.0,0.0
2024-06-26 15:51:00-04:00,143.50999450683594,143.50999450683594,143.4550018310547,143.4550018310547,1578,0.0,0.0
2024-06-26 15:52:00-04:00,143.47000122070312,143.5,143.41000366210938,143.4499969482422,3256,0.0,0.0
2024-06-26 15:53:00-04:00,143.4499969482422,143.4499969482422,143.39999389648438,143.44500732421875,708,0.0,0.0
2024-06-26 15:54:00-04:00,143.4199981689453,143.49000549316406,143.4199981689453,143.48899841308594,4184,0.0,0.0
2024-06-26 15:55:00-04:00,143.47000122070312,143.6699981689453,143.42999267578125,143.6699981689453,6960,0.0,0.0
2024-06-26 15:56:00-04:00,143.6699981689453,143.69000244140625,143.66000366210938,143.69000244140625,840,0.0,0.0
2024-06-26 15:57:00-04:00,143.6300048828125,143.64999389648438,143.5749969482422,143.6199951171875,4537,0.0,0.0
2024-06-26 15:58:00-04:00,143.6199951171875,143.6490020751953,143.47000122070312,143.47999572753906,4804,0.0,0.0
2024-06-26 15:59:00-04:00,143.52000427246094,143.75,143.47999572753906,143.72000122070312,16066,0.0,0.0
2024-06-27 09:30:00-04:00,143.8699951171875,143.8699951171875,143.80999755859375,143.80999755859375,1582,0.0,0.0
2024-06-27 09:42:00-04:00,143.42999267578125,143.42999267578125,142.8300018310547,142.8300018310547,907,0.0,0.0
2024-06-27 09:43:00-04:00,142.75999450683594,142.8101043701172,142.75,142.8101043701172,703,0.0,0.0
2024-06-27 09:44:00-04:00,142.75999450683594,142.75999450683594,142.75999450683594,142.75999450683594,584,0.0,0.0
2024-06-27 09:47:00-04:00,142.9499969482422,142.9499969482422,142.50999450683594,142.50999450683594,2653,0.0,0.0
2024-06-27 09:50:00-04:00,142.77999877929688,142.77999877929688,142.77999877929688,142.77999877929688,255,0.0,0.0
2024-06-27 09:52:00-04:00,142.80999755859375,142.80999755859375,142.52000427246094,142.52000427246094,4040,0.0,0.0
2024-06-27 09:53:00-04:00,142.57000732421875,142.57000732421875,142.57000732421875,142.57000732421875,496,0.0,0.0
2024-06-27 09:55:00-04:00,142.72999572753906,142.72999572753906,142.66000366210938,142.66000366210938,718,0.0,0.0
2024-06-27 09:56:00-04:00,142.72999572753906,142.72999572753906,142.72999572753906,142.72999572753906,234,0.0,0.0
2024-06-27 09:57:00-04:00,142.77499389648438,142.77499389648438,142.77499389648438,142.77499389648438,135,0.0,0.0
2024-06-27 09:58:00-04:00,142.78500366210938,142.78500366210938,142.78500366210938,142.78500366210938,444,0.0,0.0
2024-06-27 10:00:00-04:00,142.80999755859375,142.82000732421875,142.72000122070312,142.72000122070312,1831,0.0,0.0
2024-06-27 10:01:00-04:00,142.71499633789062,142.77999877929688,142.7100067138672,142.72999572753906,1490,0.0,0.0
2024-06-27 10:02:00-04:00,142.6699981689453,142.72999572753906,142.6699981689453,142.69000244140625,1104,0.0,0.0
2024-06-27 10:03:00-04:00,142.72999572753906,142.8249969482422,142.72999572753906,142.8249969482422,1458,0.0,0.0
2024-06-27 10:04:00-04:00,142.75999450683594,142.77000427246094,142.75,142.77000427246094,1120,0.0,0.0
2024-06-27 10:07:00-04:00,142.63999938964844,142.7100067138672,142.55499267578125,142.55499267578125,2916,0.0,0.0
2024-06-27 10:08:00-04:00,142.58999633789062,142.6699981689453,142.5850067138672,142.5850067138672,1823,0.0,0.0
2024-06-27 10:09:00-04:00,142.5800018310547,142.5800018310547,142.5800018310547,142.5800018310547,207,0.0,0.0
2024-06-27 10:10:00-04:00,142.52999877929688,142.52999877929688,142.52999877929688,142.52999877929688,388,0.0,0.0
2024-06-27 10:11:00-04:00,142.65499877929688,142.65499877929688,142.65499877929688,142.65499877929688,141,0.0,0.0
2024-06-27 10:12:00-04:00,142.69500732421875,142.77000427246094,142.69500732421875,142.6999969482422,1099,0.0,0.0
2024-06-27 10:14:00-04:00,142.6750030517578,142.6750030517578,142.6750030517578,142.6750030517578,738,0.0,0.0
2024-06-27 10:17:00-04:00,142.47500610351562,142.47500610351562,142.47500610351562,142.47500610351562,153,0.0,0.0
2024-06-27 10:18:00-04:00,142.47500610351562,142.47500610351562,142.47500610351562,142.47500610351562,1039,0.0,0.0
2024-06-27 10:24:00-04:00,142.2899932861328,142.3800048828125,142.27000427246094,142.27499389648438,3168,0.0,0.0
2024-06-27 10:29:00-04:00,142.36500549316406,142.5399932861328,142.36500549316406,142.39999389648438,2631,0.0,0.0
2024-06-27 10:31:00-04:00,142.4600067138672,142.52999877929688,142.4250030517578,142.52999877929688,2193,0.0,0.0
2024-06-27 10:35:00-04:00,142.50999450683594,142.6699981689453,142.50999450683594,142.6699981689453,3017,0.0,0.0
2024-06-27 10:36:00-04:00,142.6750030517578,142.6750030517578,142.6750030517578,142.6750030517578,190,0.0,0.0
2024-06-27 10:37:00-04:00,142.67999267578125,142.67999267578125,142.67999267578125,142.67999267578125,662,0.0,0.0
2024-06-27 10:39:00-04:00,142.75,142.92999267578125,142.75,142.91000366210938,1516,0.0,0.0
2024-06-27 10:42:00-04:00,143.0500030517578,143.0500030517578,143.0500030517578,143.0500030517578,407,0.0,0.0
2024-06-27 10:46:00-04:00,143.02999877929688,143.02999877929688,143.02999877929688,143.02999877929688,248,0.0,0.0
2024-06-27 10:48:00-04:00,142.9499969482422,142.9499969482422,142.9499969482422,142.9499969482422,464,0.0,0.0
2024-06-27 10:49:00-04:00,142.98500061035156,142.98500061035156,142.98500061035156,142.98500061035156,167,0.0,0.0
2024-06-27 10:50:00-04:00,142.97999572753906,142.97999572753906,142.97999572753906,142.97999572753906,226,0.0,0.0
2024-06-27 10:51:00-04:00,143.08999633789062,143.08999633789062,143.08999633789062,143.08999633789062,180,0.0,0.0
2024-06-27 10:52:00-04:00,142.9949951171875,142.9949951171875,142.9949951171875,142.9949951171875,269,0.0,0.0
2024-06-27 10:53:00-04:00,143.05999755859375,143.05999755859375,142.96499633789062,142.96499633789062,796,0.0,0.0
2024-06-27 10:55:00-04:00,142.88999938964844,142.88999938964844,142.86000061035156,142.86000061035156,689,0.0,0.0
2024-06-27 10:58:00-04:00,142.75,142.75,142.6199951171875,142.6199951171875,840,0.0,0.0
2024-06-27 10:59:00-04:00,142.9398956298828,142.9398956298828,142.9398956298828,142.9398956298828,1574,0.0,0.0
2024-06-27 11:04:00-04:00,142.6999969482422,142.6999969482422,142.6999969482422,142.6999969482422,518,0.0,0.0
2024-06-27 11:05:00-04:00,142.5800018310547,142.5800018310547,142.5800018310547,142.5800018310547,413,0.0,0.0
2024-06-27 11:08:00-04:00,142.5800018310547,142.5800018310547,142.5800018310547,142.5800018310547,1536,0.0,0.0
2024-06-27 11:15:00-04:00,142.4499969482422,142.4499969482422,142.3699951171875,142.3699951171875,495,0.0,0.0
2024-06-27 11:17:00-04:00,142.47500610351562,142.47500610351562,142.47500610351562,142.47500610351562,253,0.0,0.0
2024-06-27 11:19:00-04:00,142.47999572753906,142.47999572753906,142.47999572753906,142.47999572753906,113,0.0,0.0
2024-06-27 11:20:00-04:00,142.41000366210938,142.46749877929688,142.38999938964844,142.39500427246094,1620,0.0,0.0
2024-06-27 11:22:00-04:00,142.5399932861328,142.5399932861328,142.50999450683594,142.50999450683594,547,0.0,0.0
2024-06-27 11:23:00-04:00,142.50999450683594,142.50999450683594,142.50999450683594,142.50999450683594,245,0.0,0.0
2024-06-27 11:24:00-04:00,142.5050048828125,142.5050048828125,142.5050048828125,142.5050048828125,516,0.0,0.0
2024-06-27 11:27:00-04:00,142.4499969482422,142.4499969482422,142.4499969482422,142.4499969482422,552,0.0,0.0
2024-06-27 11:31:00-04:00,142.50999450683594,142.58999633789062,142.47999572753906,142.4949951171875,1560,0.0,0.0
2024-06-27 11:32:00-04:00,142.5,142.5,142.5,142.5,179,0.0,0.0
2024-06-27 11:34:00-04:00,142.6199951171875,142.6199951171875,142.27000427246094,142.3000030517578,8839,0.0,0.0
2024-06-27 11:35:00-04:00,142.39500427246094,142.39500427246094,142.39500427246094,142.39500427246094,166,0.0,0.0
2024-06-27 11:36:00-04:00,142.39999389648438,142.5500030517578,142.39999389648438,142.4149932861328,1474,0.0,0.0
2024-06-27 11:37:00-04:00,142.39999389648438,142.39999389648438,142.39999389648438,142.39999389648438,165,0.0,0.0
2024-06-27 11:39:00-04:00,142.51499938964844,142.51499938964844,142.51499938964844,142.51499938964844,322,0.0,0.0
2024-06-27 11:40:00-04:00,142.53500366210938,142.53500366210938,142.53500366210938,142.53500366210938,409,0.0,0.0
2024-06-27 11:41:00-04:00,142.61000061035156,142.61500549316406,142.5800018310547,142.5800018310547,405,0.0,0.0
2024-06-27 11:42:00-04:00,142.6199951171875,142.81500244140625,142.6199951171875,142.81500244140625,14957,0.0,0.0
2024-06-27 11:43:00-04:00,142.8699951171875,142.8699951171875,142.8699951171875,142.8699951171875,5750,0.0,0.0
2024-06-27 11:45:00-04:00,143.02000427246094,143.02000427246094,143.00999450683594,143.00999450683594,376,0.0,0.0
2024-06-27 11:47:00-04:00,143.10499572753906,143.25,143.09750366210938,143.14500427246094,1806,0.0,0.0
2024-06-27 11:52:00-04:00,143.1699981689453,143.19500732421875,143.1699981689453,143.19500732421875,433,0.0,0.0
2024-06-27 11:53:00-04:00,143.22000122070312,143.22500610351562,143.22000122070312,143.22500610351562,1722,0.0,0.0
2024-06-27 11:56:00-04:00,143.1999969482422,143.2899932861328,143.1999969482422,143.2899932861328,1856,0.0,0.0
2024-06-27 11:57:00-04:00,143.3249969482422,143.3249969482422,143.3249969482422,143.3249969482422,158,0.0,0.0
2024-06-27 11:58:00-04:00,143.32000732421875,143.32000732421875,143.32000732421875,143.32000732421875,331,0.0,0.0
2024-06-27 12:00:00-04:00,143.30499267578125,143.30499267578125,143.30499267578125,143.30499267578125,946,0.0,0.0
2024-06-27 12:13:00-04:00,143.19000244140625,143.19000244140625,143.19000244140625,143.19000244140625,196,0.0,0.0
2024-06-27 12:15:00-04:00,143.19500732421875,143.19500732421875,143.1750030517578,143.1750030517578,759,0.0,0.0
2024-06-27 12:17:00-04:00,143.27000427246094,143.27000427246094,143.27000427246094,143.27000427246094,235,0.0,0.0
2024-06-27 12:18:00-04:00,143.2100067138672,143.22000122070312,143.2100067138672,143.22000122070312,435,0.0,0.0
2024-06-27 12:21:00-04:00,143.17999267578125,143.27999877929688,143.1699981689453,143.27000427246094,5156,0.0,0.0
2024-06-27 12:23:00-04:00,143.3800048828125,143.44000244140625,143.28700256347656,143.44000244140625,1111,0.0,0.0
2024-06-27 12:26:00-04:00,143.38999938964844,143.38999938964844,143.38999938964844,143.38999938964844,203,0.0,0.0
2024-06-27 12:27:00-04:00,143.41000366210938,143.41000366210938,143.32000732421875,143.39999389648438,1327,0.0,0.0
2024-06-27 12:28:00-04:00,143.3300018310547,143.3300018310547,143.3300018310547,143.3300018310547,182,0.0,0.0
2024-06-27 12:30:00-04:00,143.34500122070312,143.34500122070312,143.34500122070312,143.34500122070312,159,0.0,0.0
2024-06-27 12:33:00-04:00,143.30999755859375,143.30999755859375,143.02000427246094,143.0800018310547,12520,0.0,0.0
2024-06-27 12:34:00-04:00,143.0749969482422,143.0749969482422,143.05999755859375,143.06500244140625,503,0.0,0.0
2024-06-27 12:35:00-04:00,142.8699951171875,142.98500061035156,142.8699951171875,142.98500061035156,235,0.0,0.0
2024-06-27 12:36:00-04:00,142.97999572753906,142.9875030517578,142.97999572753906,142.9875030517578,1200,0.0,0.0
2024-06-27 12:39:00-04:00,143.0,143.0,143.0,143.0,110,0.0,0.0
2024-06-27 12:40:00-04:00,142.9949951171875,142.9949951171875,142.9949951171875,142.9949951171875,348,0.0,0.0
2024-06-27 12:43:00-04:00,142.88999938964844,142.88999938964844,142.88999938964844,142.88999938964844,723,0.0,0.0
2024-06-27 12:44:00-04:00,142.90249633789062,142.90249633789062,142.83999633789062,142.88499450683594,702,0.0,0.0
2024-06-27 12:45:00-04:00,142.83999633789062,142.83999633789062,142.83999633789062,142.83999633789062,424,0.0,0.0
2024-06-27 12:49:00-04:00,142.84500122070312,142.84500122070312,142.84500122070312,142.84500122070312,287,0.0,0.0
2024-06-27 12:52:00-04:00,142.94000244140625,142.94000244140625,142.94000244140625,142.94000244140625,289,0.0,0.0
2024-06-27 12:53:00-04:00,142.99000549316406,142.99000549316406,142.99000549316406,142.99000549316406,132,0.0,0.0
2024-06-27 12:56:00-04:00,142.9600067138672,142.9600067138672,142.93499755859375,142.9600067138672,2021,0.0,0.0
2024-06-27 13:01:00-04:00,143.00900268554688,143.02000427246094,143.00900268554688,143.00999450683594,1232,0.0,0.0
2024-06-27 13:02:00-04:00,143.08999633789062,143.10000610351562,143.08999633789062,143.10000610351562,459,0.0,0.0
2024-06-27 13:07:00-04:00,143.0850067138672,143.0850067138672,143.0800018310547,143.0800018310547,1627,0.0,0.0
2024-06-27 13:09:00-04:00,143.0749969482422,143.0749969482422,143.0749969482422,143.0749969482422,387,0.0,0.0
2024-06-27 13:10:00-04:00,143.00999450683594,143.00999450683594,142.9499969482422,142.9499969482422,533,0.0,0.0
2024-06-27 13:11:00-04:00,142.94000244140625,142.94000244140625,142.94000244140625,142.94000244140625,222,0.0,0.0
2024-06-27 13:12:00-04:00,142.94000244140625,142.94000244140625,142.94000244140625,142.94000244140625,345,0.0,0.0
2024-06-27 13:14:00-04:00,143.0,143.0,143.0,143.0,267,0.0,0.0
2024-06-27 13:17:00-04:00,142.90499877929688,142.90499877929688,142.8300018310547,142.89500427246094,1238,0.0,0.0
2024-06-27 13:20:00-04:00,142.9261016845703,142.9261016845703,142.831298828125,142.831298828125,2799,0.0,0.0
2024-06-27 13:22:00-04:00,142.89500427246094,142.89500427246094,142.89500427246094,142.89500427246094,733,0.0,0.0
2024-06-27 13:27:00-04:00,142.93499755859375,142.93499755859375,142.93499755859375,142.93499755859375,590,0.0,0.0
2024-06-27 13:30:00-04:00,142.86000061035156,142.8800048828125,142.8300018310547,142.8800048828125,1304,0.0,0.0
2024-06-27 13:33:00-04:00,142.61000061035156,142.61000061035156,142.57000732421875,142.57000732421875,769,0.0,0.0
2024-06-27 13:35:00-04:00,142.6999969482422,142.6999969482422,142.6999969482422,142.6999969482422,155,0.0,0.0
2024-06-27 13:36:00-04:00,142.75999450683594,142.75999450683594,142.75999450683594,142.75999450683594,349,0.0,0.0
2024-06-27 13:39:00-04:00,142.69000244140625,142.69000244140625,142.69000244140625,142.69000244140625,888,0.0,0.0
2024-06-27 13:41:00-04:00,142.71499633789062,142.71499633789062,142.71499633789062,142.71499633789062,219,0.0,0.0
2024-06-27 13:42:00-04:00,142.6999969482422,142.6999969482422,142.6999969482422,142.6999969482422,195,0.0,0.0
2024-06-27 13:44:00-04:00,142.69500732421875,142.69500732421875,142.69500732421875,142.69500732421875,257,0.0,0.0
2024-06-27 13:45:00-04:00,142.69500732421875,142.69500732421875,142.69000244140625,142.69000244140625,344,0.0,0.0
2024-06-27 13:47:00-04:00,142.6300048828125,142.6300048828125,142.6300048828125,142.6300048828125,209,0.0,0.0
2024-06-27 13:49:00-04:00,142.74000549316406,142.77000427246094,142.74000549316406,142.77000427246094,1605,0.0,0.0
2024-06-27 13:50:00-04:00,142.80499267578125,142.80999755859375,142.80499267578125,142.80999755859375,2064,0.0,0.0
2024-06-27 13:52:00-04:00,142.97000122070312,142.97000122070312,142.97000122070312,142.97000122070312,978,0.0,0.0
2024-06-27 13:56:00-04:00,142.82000732421875,142.82000732421875,142.82000732421875,142.82000732421875,651,0.0,0.0
2024-06-27 13:57:00-04:00,142.7550048828125,142.7550048828125,142.7550048828125,142.7550048828125,490,0.0,0.0
2024-06-27 14:00:00-04:00,142.67999267578125,142.72000122070312,142.66000366210938,142.66000366210938,1774,0.0,0.0
2024-06-27 14:03:00-04:00,142.6699981689453,142.6699981689453,142.6699981689453,142.6699981689453,227,0.0,0.0
2024-06-27 14:04:00-04:00,142.6750030517578,142.6750030517578,142.6750030517578,142.6750030517578,226,0.0,0.0
2024-06-27 14:06:00-04:00,142.74000549316406,142.75,142.74000549316406,142.75,1069,0.0,0.0
2024-06-27 14:07:00-04:00,142.7899932861328,142.7899932861328,142.7550048828125,142.7550048828125,645,0.0,0.0
2024-06-27 14:08:00-04:00,142.86000061035156,142.86000061035156,142.86000061035156,142.86000061035156,635,0.0,0.0
2024-06-27 14:13:00-04:00,142.74000549316406,142.74000549316406,142.74000549316406,142.74000549316406,248,0.0,0.0
2024-06-27 14:14:00-04:00,142.72500610351562,142.72500610351562,142.72500610351562,142.72500610351562,165,0.0,0.0
2024-06-27 14:16:00-04:00,142.74000549316406,142.74000549316406,142.74000549316406,142.74000549316406,1030,0.0,0.0
2024-06-27 14:18:00-04:00,142.6199951171875,142.69000244140625,142.57000732421875,142.57000732421875,13588,0.0,0.0
2024-06-27 14:20:00-04:00,142.5399932861328,142.5399932861328,142.5399932861328,142.5399932861328,168,0.0,0.0
2024-06-27 14:21:00-04:00,142.61500549316406,142.61500549316406,142.52999877929688,142.5399932861328,882,0.0,0.0
2024-06-27 14:23:00-04:00,142.52349853515625,142.52999877929688,142.51499938964844,142.52999877929688,1148,0.0,0.0
2024-06-27 14:24:00-04:00,142.60000610351562,142.60000610351562,142.60000610351562,142.60000610351562,922,0.0,0.0
2024-06-27 14:25:00-04:00,142.58999633789062,142.73500061035156,142.58999633789062,142.73500061035156,1172,0.0,0.0
2024-06-27 14:27:00-04:00,142.66000366210938,142.66000366210938,142.66000366210938,142.66000366210938,438,0.0,0.0
2024-06-27 14:30:00-04:00,142.75,142.75,142.75,142.75,706,0.0,0.0
2024-06-27 14:31:00-04:00,142.69500732421875,142.69500732421875,142.58999633789062,142.58999633789062,5242,0.0,0.0
2024-06-27 14:32:00-04:00,142.60499572753906,142.60499572753906,142.60499572753906,142.60499572753906,176,0.0,0.0
2024-06-27 14:33:00-04:00,142.5850067138672,142.5850067138672,142.5850067138672,142.5850067138672,133,0.0,0.0
2024-06-27 14:34:00-04:00,142.58999633789062,142.58999633789062,142.5500030517578,142.5500030517578,480,0.0,0.0
2024-06-27 14:35:00-04:00,142.60000610351562,142.60000610351562,142.59500122070312,142.59500122070312,357,0.0,0.0
2024-06-27 14:36:00-04:00,142.52000427246094,142.5749969482422,142.52000427246094,142.5749969482422,501,0.0,0.0
2024-06-27 14:39:00-04:00,142.58999633789062,142.58999633789062,142.58999633789062,142.58999633789062,139,0.0,0.0
2024-06-27 14:40:00-04:00,142.52999877929688,142.52999877929688,142.52999877929688,142.52999877929688,211,0.0,0.0
2024-06-27 14:42:00-04:00,142.4600067138672,142.4600067138672,142.4600067138672,142.4600067138672,205,0.0,0.0
2024-06-27 14:43:00-04:00,142.5050048828125,142.5050048828125,142.5050048828125,142.5050048828125,207,0.0,0.0
2024-06-27 14:45:00-04:00,142.55999755859375,142.60499572753906,142.55999755859375,142.57000732421875,1735,0.0,0.0
2024-06-27 14:50:00-04:00,142.67999267578125,142.67999267578125,142.67999267578125,142.67999267578125,631,0.0,0.0
2024-06-27 14:53:00-04:00,142.69000244140625,142.69000244140625,142.69000244140625,142.69000244140625,142,0.0,0.0
2024-06-27 14:54:00-04:00,142.69000244140625,142.69000244140625,142.69000244140625,142.69000244140625,257,0.0,0.0
2024-06-27 14:55:00-04:00,142.66000366210938,142.66000366210938,142.66000366210938,142.66000366210938,175,0.0,0.0
2024-06-27 14:56:00-04:00,142.69000244140625,142.69000244140625,142.69000244140625,142.69000244140625,534,0.0,0.0
2024-06-27 14:57:00-04:00,142.63999938964844,142.63999938964844,142.5850067138672,142.5850067138672,769,0.0,0.0
2024-06-27 14:58:00-04:00,142.65699768066406,142.6699981689453,142.6125030517578,142.6125030517578,1407,0.0,0.0
2024-06-27 14:59:00-04:00,142.60000610351562,142.60000610351562,142.60000610351562,142.60000610351562,337,0.0,0.0
2024-06-27 15:01:00-04:00,142.60000610351562,142.60000610351562,142.60000610351562,142.60000610351562,424,0.0,0.0
2024-06-27 15:05:00-04:00,142.58999633789062,142.58999633789062,142.58999633789062,142.58999633789062,233,0.0,0.0
2024-06-27 15:06:00-04:00,142.6125030517578,142.61500549316406,142.6125030517578,142.61500549316406,526,0.0,0.0
2024-06-27 15:07:00-04:00,142.61500549316406,142.61500549316406,142.61500549316406,142.61500549316406,776,0.0,0.0
2024-06-27 15:11:00-04:00,142.55999755859375,142.60000610351562,142.55999755859375,142.60000610351562,1025,0.0,0.0
2024-06-27 15:12:00-04:00,142.60000610351562,142.74000549316406,142.60000610351562,142.74000549316406,3107,0.0,0.0
2024-06-27 15:15:00-04:00,142.86500549316406,142.86500549316406,142.86500549316406,142.86500549316406,267,0.0,0.0
2024-06-27 15:17:00-04:00,142.89999389648438,142.89999389648438,142.89999389648438,142.89999389648438,905,0.0,0.0
2024-06-27 15:18:00-04:00,142.8699951171875,142.9049072265625,142.80999755859375,142.82000732421875,1878,0.0,0.0
2024-06-27 15:19:00-04:00,142.77999877929688,142.77999877929688,142.77999877929688,142.77999877929688,925,0.0,0.0
2024-06-27 15:27:00-04:00,142.72000122070312,142.72000122070312,142.6699981689453,142.6699981689453,1273,0.0,0.0
2024-06-27 15:29:00-04:00,142.64999389648438,142.67999267578125,142.6199951171875,142.6199951171875,1309,0.0,0.0
2024-06-27 15:30:00-04:00,142.57000732421875,142.57000732421875,142.57000732421875,142.57000732421875,634,0.0,0.0
2024-06-27 15:31:00-04:00,142.57000732421875,142.61000061035156,142.57000732421875,142.61000061035156,1639,0.0,0.0
2024-06-27 15:32:00-04:00,142.55999755859375,142.63999938964844,142.55999755859375,142.6300048828125,1498,0.0,0.0
2024-06-27 15:33:00-04:00,142.61500549316406,142.61500549316406,142.55999755859375,142.55999755859375,772,0.0,0.0
2024-06-27 15:34:00-04:00,142.58999633789062,142.60499572753906,142.55499267578125,142.60499572753906,1017,0.0,0.0
2024-06-27 15:35:00-04:00,142.60000610351562,142.6697998046875,142.59500122070312,142.64500427246094,1791,0.0,0.0
2024-06-27 15:36:00-04:00,142.6199951171875,142.81500244140625,142.6199951171875,142.7512969970703,2803,0.0,0.0
2024-06-27 15:37:00-04:00,142.8800048828125,142.89999389648438,142.8800048828125,142.89999389648438,428,0.0,0.0
2024-06-27 15:38:00-04:00,142.9250030517578,142.947998046875,142.9250030517578,142.947998046875,1171,0.0,0.0
2024-06-27 15:39:00-04:00,142.8699951171875,142.8699951171875,142.8699951171875,142.8699951171875,632,0.0,0.0
2024-06-27 15:40:00-04:00,142.89999389648438,142.91000366210938,142.8699951171875,142.8699951171875,945,0.0,0.0
2024-06-27 15:41:00-04:00,142.89999389648438,142.9199981689453,142.89999389648438,142.9199981689453,1107,0.0,0.0
2024-06-27 15:42:00-04:00,142.90499877929688,142.97000122070312,142.90499877929688,142.97000122070312,1475,0.0,0.0
2024-06-27 15:43:00-04:00,142.98500061035156,143.00999450683594,142.97000122070312,142.97000122070312,919,0.0,0.0
2024-06-27 15:44:00-04:00,143.02000427246094,143.05999755859375,142.97999572753906,143.05999755859375,3751,0.0,0.0
2024-06-27 15:45:00-04:00,143.0800018310547,143.0800018310547,142.9600067138672,143.0500030517578,2805,0.0,0.0
2024-06-27 15:46:00-04:00,143.0399932861328,143.0399932861328,142.97000122070312,142.97000122070312,536,0.0,0.0
2024-06-27 15:47:00-04:00,143.01499938964844,143.01499938964844,143.01499938964844,143.01499938964844,767,0.0,0.0
2024-06-27 15:48:00-04:00,143.0050048828125,143.0050048828125,142.93499755859375,142.97000122070312,1994,0.0,0.0
2024-06-27 15:49:00-04:00,143.0050048828125,143.11000061035156,143.0050048828125,143.11000061035156,3486,0.0,0.0
2024-06-27 15:50:00-04:00,143.13999938964844,143.32000732421875,143.13999938964844,143.30999755859375,1466,0.0,0.0
2024-06-27 15:51:00-04:00,143.3300018310547,143.47000122070312,143.3300018310547,143.41000366210938,4330,0.0,0.0
2024-06-27 15:52:00-04:00,143.41000366210938,143.5,143.41000366210938,143.5,2002,0.0,0.0
2024-06-27 15:53:00-04:00,143.47999572753906,143.50999450683594,143.47999572753906,143.50999450683594,601,0.0,0.0
2024-06-27 15:54:00-04:00,143.47000122070312,143.47000122070312,143.39500427246094,143.4149932861328,6256,0.0,0.0
2024-06-27 15:55:00-04:00,143.44000244140625,143.57000732421875,143.42999267578125,143.5175018310547,6597,0.0,0.0
2024-06-27 15:56:00-04:00,143.52999877929688,143.56500244140625,143.52999877929688,143.5399932861328,4685,0.0,0.0
2024-06-27 15:57:00-04:00,143.55999755859375,143.5800018310547,143.52999877929688,143.55999755859375,5253,0.0,0.0
2024-06-27 15:58:00-04:00,143.55999755859375,143.6300048828125,143.5500030517578,143.6300048828125,6809,0.0,0.0
2024-06-27 15:59:00-04:00,143.6300048828125,143.8800048828125,143.6199951171875,143.8800048828125,28455,0.0,0.0
2024-06-28 09:30:00-04:00,143.77999877929688,144.07000732421875,143.77999877929688,144.0050048828125,2026,0.0,0.0
2024-06-28 09:31:00-04:00,144.0850067138672,144.0850067138672,144.0850067138672,144.0850067138672,581,0.0,0.0
2024-06-28 09:39:00-04:00,144.26499938964844,144.26499938964844,144.26499938964844,144.26499938964844,341,0.0,0.0
2024-06-28 09:42:00-04:00,144.19000244140625,144.19000244140625,144.19000244140625,144.19000244140625,153,0.0,0.0
2024-06-28 09:43:00-04:00,144.19500732421875,144.19500732421875,144.19500732421875,144.19500732421875,176,0.0,0.0
2024-06-28 09:44:00-04:00,143.9499969482422,143.9499969482422,143.8300018310547,143.8300018310547,1013,0.0,0.0
2024-06-28 09:48:00-04:00,143.77499389648438,143.8000030517578,143.75,143.75,741,0.0,0.0
2024-06-28 09:50:00-04:00,143.69000244140625,143.69000244140625,143.69000244140625,143.69000244140625,198,0.0,0.0
2024-06-28 09:56:00-04:00,143.69000244140625,143.69000244140625,143.69000244140625,143.69000244140625,171,0.0,0.0
2024-06-28 09:59:00-04:00,143.69500732421875,143.69500732421875,143.69500732421875,143.69500732421875,427,0.0,0.0
2024-06-28 10:00:00-04:00,143.8800048828125,143.8800048828125,143.7100067138672,143.7100067138672,1010,0.0,0.0
2024-06-28 10:01:00-04:00,144.0,144.0,144.0,144.0,413,0.0,0.0
2024-06-28 10:02:00-04:00,143.9949951171875,143.9949951171875,143.9949951171875,143.9949951171875,342,0.0,0.0
2024-06-28 10:03:00-04:00,143.97999572753906,143.98500061035156,143.97999572753906,143.98500061035156,285,0.0,0.0
2024-06-28 10:04:00-04:00,144.14999389648438,144.14999389648438,143.9949951171875,143.9949951171875,544,0.0,0.0
2024-06-28 10:05:00-04:00,143.86500549316406,143.8699951171875,143.86500549316406,143.8699951171875,252,0.0,0.0
2024-06-28 10:06:00-04:00,144.0800018310547,144.0800018310547,144.0800018310547,144.0800018310547,371,0.0,0.0
2024-06-28 10:08:00-04:00,143.9550018310547,143.9550018310547,143.9550018310547,143.9550018310547,417,0.0,0.0
2024-06-28 10:10:00-04:00,144.32000732421875,144.32000732421875,144.13999938964844,144.21249389648438,563,0.0,0.0
2024-06-28 10:11:00-04:00,144.0749969482422,144.11500549316406,144.07000732421875,144.11500549316406,634,0.0,0.0
2024-06-28 10:13:00-04:00,143.9600067138672,144.12249755859375,143.7899932861328,143.9199981689453,2638,0.0,0.0
2024-06-28 10:14:00-04:00,143.92999267578125,143.92999267578125,143.92999267578125,143.92999267578125,326,0.0,0.0
2024-06-28 10:15:00-04:00,143.88499450683594,143.88499450683594,143.88499450683594,143.88499450683594,100,0.0,0.0
2024-06-28 10:16:00-04:00,143.97000122070312,143.97000122070312,143.97000122070312,143.97000122070312,218,0.0,0.0
2024-06-28 10:17:00-04:00,143.875,143.875,143.875,143.875,341,0.0,0.0
2024-06-28 10:18:00-04:00,144.0500030517578,144.0500030517578,144.0500030517578,144.0500030517578,173,0.0,0.0
2024-06-28 10:19:00-04:00,143.93499755859375,143.93499755859375,143.93499755859375,143.93499755859375,617,0.0,0.0
2024-06-28 10:21:00-04:00,143.9199981689453,143.9199981689453,143.9199981689453,143.9199981689453,389,0.0,0.0
2024-06-28 10:25:00-04:00,143.86000061035156,143.86000061035156,143.86000061035156,143.86000061035156,310,0.0,0.0
2024-06-28 10:27:00-04:00,143.8000030517578,143.8000030517578,143.55999755859375,143.55999755859375,1910,0.0,0.0
2024-06-28 10:28:00-04:00,143.52499389648438,143.52999877929688,143.52499389648438,143.52999877929688,892,0.0,0.0
2024-06-28 10:30:00-04:00,143.52999877929688,143.52999877929688,143.52999877929688,143.52999877929688,276,0.0,0.0
2024-06-28 10:33:00-04:00,143.52000427246094,143.52000427246094,143.52000427246094,143.52000427246094,295,0.0,0.0
2024-06-28 10:34:00-04:00,143.5500030517578,143.5500030517578,143.5500030517578,143.5500030517578,276,0.0,0.0
2024-06-28 10:35:00-04:00,143.6300048828125,143.63999938964844,143.60000610351562,143.63499450683594,1134,0.0,0.0
2024-06-28 10:36:00-04:00,143.4600067138672,143.5850067138672,143.39500427246094,143.5050048828125,2557,0.0,0.0
2024-06-28 10:38:00-04:00,143.6020965576172,143.6020965576172,143.5399932861328,143.5399932861328,1261,0.0,0.0
2024-06-28 10:40:00-04:00,143.48500061035156,143.48500061035156,143.48500061035156,143.48500061035156,473,0.0,0.0
2024-06-28 10:42:00-04:00,143.3350067138672,143.3350067138672,143.3350067138672,143.3350067138672,149,0.0,0.0
2024-06-28 10:44:00-04:00,143.1699981689453,143.1699981689453,143.16000366210938,143.1699981689453,876,0.0,0.0
2024-06-28 10:45:00-04:00,143.17999267578125,143.17999267578125,143.17999267578125,143.17999267578125,205,0.0,0.0
2024-06-28 10:46:00-04:00,143.17999267578125,143.17999267578125,143.17999267578125,143.17999267578125,664,0.0,0.0
2024-06-28 10:47:00-04:00,143.18499755859375,143.18499755859375,143.18499755859375,143.18499755859375,258,0.0,0.0
2024-06-28 10:48:00-04:00,143.18499755859375,143.3000030517578,143.18499755859375,143.3000030517578,779,0.0,0.0
2024-06-28 10:49:00-04:00,143.18499755859375,143.18499755859375,143.18499755859375,143.18499755859375,202,0.0,0.0
2024-06-28 10:50:00-04:00,143.18499755859375,143.18499755859375,143.18499755859375,143.18499755859375,646,0.0,0.0
2024-06-28 10:51:00-04:00,143.0399932861328,143.11000061035156,143.0399932861328,143.11000061035156,591,0.0,0.0
2024-06-28 10:54:00-04:00,143.05999755859375,143.05999755859375,142.97999572753906,143.05999755859375,909,0.0,0.0
2024-06-28 10:56:00-04:00,142.97999572753906,143.05999755859375,142.97999572753906,142.99000549316406,1034,0.0,0.0
2024-06-28 10:57:00-04:00,142.86000061035156,142.91000366210938,142.86000061035156,142.86000061035156,957,0.0,0.0
2024-06-28 10:58:00-04:00,142.74000549316406,142.74000549316406,142.67999267578125,142.69000244140625,1285,0.0,0.0
2024-06-28 10:59:00-04:00,142.68499755859375,142.68499755859375,142.5449981689453,142.5449981689453,539,0.0,0.0
2024-06-28 11:00:00-04:00,142.63999938964844,142.75999450683594,142.63499450683594,142.75,1165,0.0,0.0
2024-06-28 11:02:00-04:00,142.8000030517578,142.8000030517578,142.8000030517578,142.8000030517578,338,0.0,0.0
2024-06-28 11:05:00-04:00,142.64999389648438,142.64999389648438,142.64999389648438,142.64999389648438,681,0.0,0.0
2024-06-28 11:07:00-04:00,142.57000732421875,142.63499450683594,142.52999877929688,142.52999877929688,749,0.0,0.0
2024-06-28 11:08:00-04:00,142.6199951171875,142.6199951171875,142.6199951171875,142.6199951171875,572,0.0,0.0
2024-06-28 11:10:00-04:00,142.61000061035156,142.72000122070312,142.61000061035156,142.72000122070312,732,0.0,0.0
2024-06-28 11:11:00-04:00,142.6649932861328,142.6649932861328,142.6649932861328,142.6649932861328,470,0.0,0.0
2024-06-28 11:15:00-04:00,142.6999969482422,142.6999969482422,142.6999969482422,142.6999969482422,328,0.0,0.0
2024-06-28 11:17:00-04:00,142.5800018310547,142.5800018310547,142.5800018310547,142.5800018310547,164,0.0,0.0
2024-06-28 11:18:00-04:00,142.6699981689453,142.6999969482422,142.6699981689453,142.6999969482422,1204,0.0,0.0
2024-06-28 11:19:00-04:00,142.71499633789062,142.72000122070312,142.71499633789062,142.72000122070312,785,0.0,0.0
2024-06-28 11:21:00-04:00,142.5800018310547,142.61000061035156,142.5800018310547,142.61000061035156,720,0.0,0.0
2024-06-28 11:25:00-04:00,142.5,142.5,142.5,142.5,472,0.0,0.0
2024-06-28 11:26:00-04:00,142.52499389648438,142.5500030517578,142.52499389648438,142.5500030517578,1032,0.0,0.0
2024-06-28 11:30:00-04:00,142.4600067138672,142.4600067138672,142.4600067138672,142.4600067138672,124,0.0,0.0
2024-06-28 11:31:00-04:00,142.49000549316406,142.49000549316406,142.49000549316406,142.49000549316406,392,0.0,0.0
2024-06-28 11:32:00-04:00,142.50999450683594,142.50999450683594,142.50999450683594,142.50999450683594,386,0.0,0.0
2024-06-28 11:35:00-04:00,142.51499938964844,142.51499938964844,142.49000549316406,142.49000549316406,365,0.0,0.0
2024-06-28 11:37:00-04:00,142.47000122070312,142.55999755859375,142.47000122070312,142.55999755859375,1611,0.0,0.0
2024-06-28 11:38:00-04:00,142.56500244140625,142.56500244140625,142.56500244140625,142.56500244140625,146,0.0,0.0
2024-06-28 11:39:00-04:00,142.55999755859375,142.64999389648438,142.55999755859375,142.5850067138672,1126,0.0,0.0
2024-06-28 11:40:00-04:00,142.55999755859375,142.64999389648438,142.52000427246094,142.52000427246094,889,0.0,0.0
2024-06-28 11:41:00-04:00,142.52999877929688,142.52999877929688,142.52999877929688,142.52999877929688,835,0.0,0.0
2024-06-28 11:43:00-04:00,142.44000244140625,142.47000122070312,142.44000244140625,142.47000122070312,359,0.0,0.0
2024-06-28 11:44:00-04:00,142.44000244140625,142.44000244140625,142.44000244140625,142.44000244140625,103,0.0,0.0
2024-06-28 11:45:00-04:00,142.47000122070312,142.47000122070312,142.36000061035156,142.36000061035156,302,0.0,0.0
2024-06-28 11:46:00-04:00,142.46499633789062,142.46499633789062,142.46499633789062,142.46499633789062,265,0.0,0.0
2024-06-28 11:48:00-04:00,142.38499450683594,142.4550018310547,142.36000061035156,142.4499969482422,1035,0.0,0.0
2024-06-28 11:50:00-04:00,142.36500549316406,142.4199981689453,142.33999633789062,142.3699951171875,1070,0.0,0.0
2024-06-28 11:52:00-04:00,142.49000549316406,142.49000549316406,142.49000549316406,142.49000549316406,797,0.0,0.0
2024-06-28 11:54:00-04:00,142.4499969482422,142.49000549316406,142.4499969482422,142.49000549316406,651,0.0,0.0
2024-06-28 11:55:00-04:00,142.39999389648438,142.39999389648438,142.39999389648438,142.39999389648438,176,0.0,0.0
2024-06-28 11:56:00-04:00,142.4149932861328,142.4149932861328,142.4149932861328,142.4149932861328,412,0.0,0.0
2024-06-28 11:57:00-04:00,142.44000244140625,142.44000244140625,142.42999267578125,142.42999267578125,499,0.0,0.0
2024-06-28 11:58:00-04:00,142.50999450683594,142.50999450683594,142.42999267578125,142.42999267578125,1204,0.0,0.0
2024-06-28 11:59:00-04:00,142.57000732421875,142.58999633789062,142.51499938964844,142.5800018310547,1537,0.0,0.0
2024-06-28 12:00:00-04:00,142.49000549316406,142.60499572753906,142.49000549316406,142.60499572753906,718,0.0,0.0
2024-06-28 12:01:00-04:00,142.49000549316406,142.63499450683594,142.49000549316406,142.53500366210938,2648,0.0,0.0
2024-06-28 12:02:00-04:00,142.5,142.5449981689453,142.5,142.5449981689453,206,0.0,0.0
2024-06-28 12:03:00-04:00,142.49000549316406,142.6300048828125,142.47999572753906,142.47999572753906,1536,0.0,0.0
2024-06-28 12:04:00-04:00,142.5500030517578,142.6199951171875,142.5399932861328,142.6199951171875,1079,0.0,0.0
2024-06-28 12:05:00-04:00,142.52999877929688,142.52999877929688,142.52999877929688,142.52999877929688,349,0.0,0.0
2024-06-28 12:07:00-04:00,142.50999450683594,142.50999450683594,142.50999450683594,142.50999450683594,370,0.0,0.0
2024-06-28 12:09:00-04:00,142.46499633789062,142.49000549316406,142.46499633789062,142.47000122070312,614,0.0,0.0
2024-06-28 12:12:00-04:00,142.47500610351562,142.55999755859375,142.47500610351562,142.55999755859375,1129,0.0,0.0
2024-06-28 12:13:00-04:00,142.47000122070312,142.47000122070312,142.47000122070312,142.47000122070312,568,0.0,0.0
2024-06-28 12:17:00-04:00,142.5399932861328,142.63999938964844,142.52999877929688,142.63999938964844,1980,0.0,0.0
2024-06-28 12:18:00-04:00,142.60000610351562,142.60000610351562,142.60000610351562,142.60000610351562,489,0.0,0.0
2024-06-28 12:21:00-04:00,142.69000244140625,142.69000244140625,142.69000244140625,142.69000244140625,119,0.0,0.0
2024-06-28 12:22:00-04:00,142.625,142.625,142.625,142.625,781,0.0,0.0
2024-06-28 12:27:00-04:00,142.63999938964844,142.63999938964844,142.63999938964844,142.63999938964844,168,0.0,0.0
2024-06-28 12:28:00-04:00,142.6999969482422,142.71499633789062,142.6999969482422,142.71499633789062,912,0.0,0.0
2024-06-28 12:29:00-04:00,142.71499633789062,142.71499633789062,142.71499633789062,142.71499633789062,362,0.0,0.0
2024-06-28 12:31:00-04:00,142.67999267578125,142.67999267578125,142.67999267578125,142.67999267578125,271,0.0,0.0
2024-06-28 12:32:00-04:00,142.73959350585938,142.7799072265625,142.73959350585938,142.7799072265625,474,0.0,0.0
2024-06-28 12:33:00-04:00,142.67880249023438,142.67880249023438,142.67880249023438,142.67880249023438,217,0.0,0.0
2024-06-28 12:34:00-04:00,142.72000122070312,142.72000122070312,142.72000122070312,142.72000122070312,420,0.0,0.0
2024-06-28 12:35:00-04:00,142.72000122070312,142.72000122070312,142.72000122070312,142.72000122070312,230,0.0,0.0
2024-06-28 12:36:00-04:00,142.74000549316406,142.80999755859375,142.74000549316406,142.80999755859375,1605,0.0,0.0
2024-06-28 12:40:00-04:00,142.8000030517578,142.8000030517578,142.8000030517578,142.8000030517578,362,0.0,0.0
2024-06-28 12:41:00-04:00,142.8249969482422,142.8249969482422,142.7899932861328,142.7899932861328,522,0.0,0.0
2024-06-28 12:42:00-04:00,142.74000549316406,142.74000549316406,142.72000122070312,142.72000122070312,1095,0.0,0.0
2024-06-28 12:43:00-04:00,142.69500732421875,142.69500732421875,142.69500732421875,142.69500732421875,269,0.0,0.0
2024-06-28 12:44:00-04:00,142.6999969482422,142.6999969482422,142.6999969482422,142.6999969482422,585,0.0,0.0
2024-06-28 12:46:00-04:00,142.6999969482422,142.6999969482422,142.6999969482422,142.6999969482422,610,0.0,0.0
2024-06-28 12:49:00-04:00,142.72000122070312,142.8000030517578,142.72000122070312,142.76499938964844,2176,0.0,0.0
2024-06-28 12:55:00-04:00,142.6750030517578,142.6750030517578,142.6750030517578,142.6750030517578,254,0.0,0.0
2024-06-28 12:57:00-04:00,142.75999450683594,142.75999450683594,142.75999450683594,142.75999450683594,511,0.0,0.0
2024-06-28 12:59:00-04:00,142.82000732421875,142.82000732421875,142.82000732421875,142.82000732421875,416,0.0,0.0
2024-06-28 13:03:00-04:00,142.74000549316406,142.74000549316406,142.74000549316406,142.74000549316406,748,0.0,0.0
2024-06-28 13:04:00-04:00,142.69000244140625,142.69000244140625,142.69000244140625,142.69000244140625,115,0.0,0.0
2024-06-28 13:05:00-04:00,142.72999572753906,142.7899932861328,142.6925048828125,142.7899932861328,2267,0.0,0.0
2024-06-28 13:06:00-04:00,142.72999572753906,142.7899932861328,142.72999572753906,142.74000549316406,2037,0.0,0.0
2024-06-28 13:08:00-04:00,142.72999572753906,142.72999572753906,142.72999572753906,142.72999572753906,347,0.0,0.0
2024-06-28 13:09:00-04:00,142.7050018310547,142.7050018310547,142.7050018310547,142.7050018310547,612,0.0,0.0
2024-06-28 13:12:00-04:00,142.6300048828125,142.6300048828125,142.6300048828125,142.6300048828125,1119,0.0,0.0
2024-06-28 13:13:00-04:00,142.5850067138672,142.5850067138672,142.5850067138672,142.5850067138672,169,0.0,0.0
2024-06-28 13:14:00-04:00,142.58999633789062,142.69000244140625,142.58999633789062,142.69000244140625,458,0.0,0.0
2024-06-28 13:15:00-04:00,142.69000244140625,142.69000244140625,142.69000244140625,142.69000244140625,582,0.0,0.0
2024-06-28 13:16:00-04:00,142.69500732421875,142.69500732421875,142.69500732421875,142.69500732421875,165,0.0,0.0
2024-06-28 13:18:00-04:00,142.6999969482422,142.7100067138672,142.66000366210938,142.6999969482422,2088,0.0,0.0
2024-06-28 13:19:00-04:00,142.67999267578125,142.67999267578125,142.67999267578125,142.67999267578125,359,0.0,0.0
2024-06-28 13:20:00-04:00,142.67999267578125,142.68499755859375,142.67999267578125,142.68499755859375,211,0.0,0.0
2024-06-28 13:21:00-04:00,142.69000244140625,142.69000244140625,142.69000244140625,142.69000244140625,738,0.0,0.0
2024-06-28 13:24:00-04:00,142.5800018310547,142.5800018310547,142.5500030517578,142.5500030517578,705,0.0,0.0
2024-06-28 13:25:00-04:00,142.5399932861328,142.5399932861328,142.5399932861328,142.5399932861328,192,0.0,0.0
2024-06-28 13:26:00-04:00,142.55499267578125,142.55499267578125,142.55499267578125,142.55499267578125,228,0.0,0.0
2024-06-28 13:27:00-04:00,142.5449981689453,142.5500030517578,142.5449981689453,142.5500030517578,2216,0.0,0.0
2024-06-28 13:28:00-04:00,142.4600067138672,142.4600067138672,142.4600067138672,142.4600067138672,335,0.0,0.0
2024-06-28 13:29:00-04:00,142.2899932861328,142.2899932861328,142.2899932861328,142.2899932861328,496,0.0,0.0
2024-06-28 13:30:00-04:00,142.19000244140625,142.19000244140625,142.19000244140625,142.19000244140625,198,0.0,0.0
2024-06-28 13:31:00-04:00,142.19000244140625,142.19000244140625,142.19000244140625,142.19000244140625,631,0.0,0.0
2024-06-28 13:33:00-04:00,142.18499755859375,142.18499755859375,142.10000610351562,142.10000610351562,1061,0.0,0.0
2024-06-28 13:35:00-04:00,142.08999633789062,142.08999633789062,142.0800018310547,142.0800018310547,545,0.0,0.0
2024-06-28 13:37:00-04:00,142.0800018310547,142.0800018310547,142.0800018310547,142.0800018310547,310,0.0,0.0
2024-06-28 13:38:00-04:00,141.9499969482422,141.9499969482422,141.9499969482422,141.9499969482422,143,0.0,0.0
2024-06-28 13:39:00-04:00,142.02000427246094,142.02000427246094,142.02000427246094,142.02000427246094,1274,0.0,0.0
2024-06-28 13:43:00-04:00,141.9199981689453,141.9199981689453,141.86000061035156,141.86000061035156,662,0.0,0.0
2024-06-28 13:44:00-04:00,141.80999755859375,141.80999755859375,141.8000030517578,141.8000030517578,374,0.0,0.0
2024-06-28 13:45:00-04:00,141.77000427246094,141.77000427246094,141.71499633789062,141.71499633789062,928,0.0,0.0
2024-06-28 13:46:00-04:00,141.6699981689453,141.6699981689453,141.6649932861328,141.6649932861328,928,0.0,0.0
2024-06-28 13:50:00-04:00,141.67999267578125,141.77999877929688,141.65499877929688,141.6999969482422,5293,0.0,0.0
2024-06-28 13:51:00-04:00,141.6999969482422,141.6999969482422,141.6999969482422,141.6999969482422,1719,0.0,0.0
2024-06-28 13:59:00-04:00,141.7100067138672,141.7100067138672,141.7100067138672,141.7100067138672,335,0.0,0.0
2024-06-28 14:00:00-04:00,141.66000366210938,141.66000366210938,141.66000366210938,141.66000366210938,794,0.0,0.0
2024-06-28 14:02:00-04:00,141.52999877929688,141.52999877929688,141.52999877929688,141.52999877929688,396,0.0,0.0
2024-06-28 14:04:00-04:00,141.4199981689453,141.4199981689453,141.4199981689453,141.4199981689453,363,0.0,0.0
2024-06-28 14:06:00-04:00,141.4199981689453,141.48500061035156,141.375,141.48500061035156,2784,0.0,0.0
2024-06-28 14:07:00-04:00,141.42999267578125,141.49000549316406,141.42999267578125,141.49000549316406,312,0.0,0.0
2024-06-28 14:08:00-04:00,141.49000549316406,141.49000549316406,141.49000549316406,141.49000549316406,480,0.0,0.0
2024-06-28 14:11:00-04:00,141.3699951171875,141.3699951171875,141.3699951171875,141.3699951171875,281,0.0,0.0
2024-06-28 14:12:00-04:00,141.375,141.375,141.3000030517578,141.3000030517578,700,0.0,0.0
2024-06-28 14:15:00-04:00,141.38499450683594,141.38499450683594,141.38499450683594,141.38499450683594,448,0.0,0.0
2024-06-28 14:19:00-04:00,141.36500549316406,141.36500549316406,141.30999755859375,141.30999755859375,277,0.0,0.0
2024-06-28 14:20:00-04:00,141.36500549316406,141.36500549316406,141.36500549316406,141.36500549316406,680,0.0,0.0
2024-06-28 14:22:00-04:00,141.2100067138672,141.2100067138672,141.2100067138672,141.2100067138672,702,0.0,0.0
2024-06-28 14:23:00-04:00,141.0399932861328,141.17999267578125,141.0399932861328,141.125,2672,0.0,0.0
2024-06-28 14:24:00-04:00,141.1300048828125,141.1300048828125,141.1300048828125,141.1300048828125,298,0.0,0.0
2024-06-28 14:25:00-04:00,141.17999267578125,141.19000244140625,141.17999267578125,141.19000244140625,705,0.0,0.0
2024-06-28 14:27:00-04:00,141.13999938964844,141.14999389648438,141.13999938964844,141.14999389648438,539,0.0,0.0
2024-06-28 14:29:00-04:00,141.0800018310547,141.22000122070312,141.0800018310547,141.22000122070312,482,0.0,0.0
2024-06-28 14:33:00-04:00,141.0399932861328,141.0399932861328,141.0399932861328,141.0399932861328,1075,0.0,0.0
2024-06-28 14:36:00-04:00,141.11000061035156,141.11000061035156,141.09500122070312,141.09500122070312,301,0.0,0.0
2024-06-28 14:37:00-04:00,141.0800018310547,141.0800018310547,141.0800018310547,141.0800018310547,842,0.0,0.0
2024-06-28 14:38:00-04:00,141.00999450683594,141.00999450683594,141.00999450683594,141.00999450683594,644,0.0,0.0
2024-06-28 14:40:00-04:00,140.89999389648438,140.89999389648438,140.82000732421875,140.82000732421875,565,0.0,0.0
2024-06-28 14:43:00-04:00,140.82000732421875,140.82000732421875,140.82000732421875,140.82000732421875,683,0.0,0.0
2024-06-28 14:45:00-04:00,140.75,140.77999877929688,140.75,140.77999877929688,522,0.0,0.0
2024-06-28 14:46:00-04:00,140.7899932861328,140.80999755859375,140.72000122070312,140.75,3568,0.0,0.0
2024-06-28 14:47:00-04:00,140.86500549316406,140.86500549316406,140.86500549316406,140.86500549316406,432,0.0,0.0
2024-06-28 14:48:00-04:00,140.86000061035156,140.8800048828125,140.83999633789062,140.83999633789062,1184,0.0,0.0
2024-06-28 14:49:00-04:00,140.7899932861328,140.83999633789062,140.7899932861328,140.83999633789062,2214,0.0,0.0
2024-06-28 14:55:00-04:00,140.63999938964844,140.64999389648438,140.5800018310547,140.61000061035156,2615,0.0,0.0
2024-06-28 14:57:00-04:00,140.61000061035156,140.6999969482422,140.60000610351562,140.6999969482422,1434,0.0,0.0
2024-06-28 14:58:00-04:00,140.64999389648438,140.64999389648438,140.64999389648438,140.64999389648438,526,0.0,0.0
2024-06-28 14:59:00-04:00,140.64500427246094,140.65499877929688,140.64500427246094,140.65499877929688,559,0.0,0.0
2024-06-28 15:01:00-04:00,140.69500732421875,140.77999877929688,140.69500732421875,140.77999877929688,1222,0.0,0.0
2024-06-28 15:02:00-04:00,140.6699981689453,140.68499755859375,140.6699981689453,140.68499755859375,646,0.0,0.0
2024-06-28 15:06:00-04:00,140.6199951171875,140.6199951171875,140.6199951171875,140.6199951171875,788,0.0,0.0
2024-06-28 15:08:00-04:00,140.63999938964844,140.63999938964844,140.6199951171875,140.6199951171875,684,0.0,0.0
2024-06-28 15:09:00-04:00,140.6199951171875,140.6199951171875,140.6199951171875,140.6199951171875,473,0.0,0.0
2024-06-28 15:10:00-04:00,140.69000244140625,140.69000244140625,140.6699981689453,140.6699981689453,625,0.0,0.0
2024-06-28 15:11:00-04:00,140.64500427246094,140.64500427246094,140.64500427246094,140.64500427246094,370,0.0,0.0
2024-06-28 15:12:00-04:00,140.6300048828125,140.6300048828125,140.6300048828125,140.6300048828125,517,0.0,0.0
2024-06-28 15:14:00-04:00,140.5500030517578,140.57000732421875,140.5050048828125,140.5399932861328,2538,0.0,0.0
2024-06-28 15:15:00-04:00,140.57000732421875,140.57000732421875,140.52999877929688,140.52999877929688,1169,0.0,0.0
2024-06-28 15:16:00-04:00,140.4600067138672,140.5,140.4199981689453,140.5,2134,0.0,0.0
2024-06-28 15:18:00-04:00,140.44949340820312,140.5,140.44949340820312,140.5,570,0.0,0.0
2024-06-28 15:19:00-04:00,140.51499938964844,140.57000732421875,140.51499938964844,140.57000732421875,1587,0.0,0.0
2024-06-28 15:20:00-04:00,140.61000061035156,140.61000061035156,140.61000061035156,140.61000061035156,833,0.0,0.0
2024-06-28 15:21:00-04:00,140.52000427246094,140.57000732421875,140.52000427246094,140.57000732421875,381,0.0,0.0
2024-06-28 15:22:00-04:00,140.5800018310547,140.5800018310547,140.5800018310547,140.5800018310547,1086,0.0,0.0
2024-06-28 15:25:00-04:00,140.5850067138672,140.5850067138672,140.5850067138672,140.5850067138672,993,0.0,0.0
2024-06-28 15:26:00-04:00,140.52999877929688,140.5399932861328,140.47999572753906,140.5399932861328,912,0.0,0.0
2024-06-28 15:27:00-04:00,140.50999450683594,140.50999450683594,140.5,140.5,410,0.0,0.0
2024-06-28 15:28:00-04:00,140.5500030517578,140.5500030517578,140.5500030517578,140.5500030517578,952,0.0,0.0
2024-06-28 15:29:00-04:00,140.52999877929688,140.55999755859375,140.52999877929688,140.55999755859375,1932,0.0,0.0
2024-06-28 15:30:00-04:00,140.5800018310547,140.5800018310547,140.47999572753906,140.47999572753906,2376,0.0,0.0
2024-06-28 15:31:00-04:00,140.52999877929688,140.52999877929688,140.32000732421875,140.32000732421875,1373,0.0,0.0
2024-06-28 15:32:00-04:00,140.25999450683594,140.25999450683594,140.25999450683594,140.25999450683594,707,0.0,0.0
2024-06-28 15:34:00-04:00,140.3300018310547,140.3300018310547,140.3300018310547,140.3300018310547,547,0.0,0.0
2024-06-28 15:35:00-04:00,140.27999877929688,140.36000061035156,140.27999877929688,140.2899932861328,1479,0.0,0.0
2024-06-28 15:36:00-04:00,140.2949981689453,140.2949981689453,140.22999572753906,140.22999572753906,906,0.0,0.0
2024-06-28 15:37:00-04:00,140.2899932861328,140.2899932861328,140.2899932861328,140.2899932861328,1256,0.0,0.0
2024-06-28 15:38:00-04:00,140.30499267578125,140.30499267578125,140.30499267578125,140.30499267578125,333,0.0,0.0
2024-06-28 15:39:00-04:00,140.35000610351562,140.39999389648438,140.32749938964844,140.36500549316406,2617,0.0,0.0
2024-06-28 15:40:00-04:00,140.33999633789062,140.46499633789062,140.33999633789062,140.46499633789062,3835,0.0,0.0
2024-06-28 15:41:00-04:00,140.47999572753906,140.52999877929688,140.47000122070312,140.47000122070312,2676,0.0,0.0
2024-06-28 15:43:00-04:00,140.49899291992188,140.49899291992188,140.4929962158203,140.4929962158203,470,0.0,0.0
2024-06-28 15:44:00-04:00,140.5,140.5,140.44000244140625,140.44000244140625,1136,0.0,0.0
2024-06-28 15:45:00-04:00,140.2949981689453,140.30999755859375,140.27499389648438,140.2949981689453,1607,0.0,0.0
2024-06-28 15:46:00-04:00,140.32000732421875,140.32000732421875,140.27000427246094,140.27499389648438,1906,0.0,0.0
2024-06-28 15:47:00-04:00,140.30999755859375,140.30999755859375,140.24000549316406,140.24000549316406,1418,0.0,0.0
2024-06-28 15:48:00-04:00,140.21499633789062,140.21499633789062,140.21499633789062,140.21499633789062,520,0.0,0.0
2024-06-28 15:49:00-04:00,140.2100067138672,140.2100067138672,140.13999938964844,140.1750030517578,2487,0.0,0.0
2024-06-28 15:50:00-04:00,140.11000061035156,140.2274932861328,140.08999633789062,140.2274932861328,4579,0.0,0.0
2024-06-28 15:51:00-04:00,140.25,140.36000061035156,140.24000549316406,140.36000061035156,3467,0.0,0.0
2024-06-28 15:52:00-04:00,140.52999877929688,140.52999877929688,140.39999389648438,140.39999389648438,4234,0.0,0.0
2024-06-28 15:53:00-04:00,140.3300018310547,140.3300018310547,140.22000122070312,140.2550048828125,2908,0.0,0.0
2024-06-28 15:54:00-04:00,140.25,140.27999877929688,140.24000549316406,140.25999450683594,3444,0.0,0.0
2024-06-28 15:55:00-04:00,140.1999969482422,140.27000427246094,140.1699981689453,140.25999450683594,7230,0.0,0.0
2024-06-28 15:56:00-04:00,140.27999877929688,140.6490020751953,140.2100067138672,140.58999633789062,11917,0.0,0.0
2024-06-28 15:57:00-04:00,140.6300048828125,140.6300048828125,140.55999755859375,140.55999755859375,4951,0.0,0.0
2024-06-28 15:58:00-04:00,140.55999755859375,140.61000061035156,140.52000427246094,140.56900024414062,5659,0.0,0.0
2024-06-28 15:59:00-04:00,140.51499938964844,140.83999633789062,140.49000549316406,140.77999877929688,17641,0.0,0.0
