Datetime,Open,High,Low,Close,Volume,Dividends,Stock Splits
2024-06-17 09:30:00-04:00,144.8699951171875,144.8699951171875,144.8699951171875,144.8699951171875,0,0.0,0.0
2024-06-17 09:33:00-04:00,145.06500244140625,145.23500061035156,144.75999450683594,145.23500061035156,363,0.0,0.0
2024-06-17 09:34:00-04:00,145.22500610351562,145.22500610351562,145.22500610351562,145.22500610351562,182,0.0,0.0
2024-06-17 09:39:00-04:00,145.18499755859375,145.18499755859375,144.80999755859375,144.9499969482422,1838,0.0,0.0
2024-06-17 09:51:00-04:00,144.8699951171875,144.8699951171875,144.8699951171875,144.8699951171875,157,0.0,0.0
2024-06-17 09:53:00-04:00,144.9149932861328,144.9149932861328,144.90499877929688,144.90499877929688,382,0.0,0.0
2024-06-17 09:54:00-04:00,144.8800048828125,144.91000366210938,144.8800048828125,144.91000366210938,463,0.0,0.0
2024-06-17 09:56:00-04:00,144.64999389648438,144.64999389648438,144.64999389648438,144.64999389648438,227,0.0,0.0
2024-06-17 09:58:00-04:00,144.69000244140625,144.69000244140625,144.69000244140625,144.69000244140625,530,0.0,0.0
2024-06-17 10:00:00-04:00,144.6199951171875,144.75999450683594,144.6199951171875,144.75999450683594,480,0.0,0.0
2024-06-17 10:01:00-04:00,144.7550048828125,144.7550048828125,144.60000610351562,144.60000610351562,1578,0.0,0.0
2024-06-17 10:02:00-04:00,144.69000244140625,144.69000244140625,144.69000244140625,144.69000244140625,125,0.0,0.0
2024-06-17 10:04:00-04:00,144.77000427246094,144.77000427246094,144.77000427246094,144.77000427246094,729,0.0,0.0
2024-06-17 10:10:00-04:00,144.82000732421875,145.00999450683594,144.82000732421875,145.0050048828125,756,0.0,0.0
2024-06-17 10:13:00-04:00,144.77000427246094,144.8699951171875,144.77000427246094,144.8699951171875,489,0.0,0.0
2024-06-17 10:15:00-04:00,144.77000427246094,144.99000549316406,144.77000427246094,144.99000549316406,511,0.0,0.0
2024-06-17 10:17:00-04:00,144.89999389648438,144.89999389648438,144.89999389648438,144.89999389648438,186,0.0,0.0
2024-06-17 10:18:00-04:00,144.85000610351562,144.85000610351562,144.85000610351562,144.85000610351562,327,0.0,0.0
2024-06-17 10:19:00-04:00,145.0,145.0,145.0,145.0,656,0.0,0.0
2024-06-17 10:20:00-04:00,144.9199981689453,144.9199981689453,144.9199981689453,144.9199981689453,595,0.0,0.0
2024-06-17 10:24:00-04:00,144.92999267578125,144.92999267578125,144.85000610351562,144.85000610351562,680,0.0,0.0
2024-06-17 10:27:00-04:00,145.09300231933594,145.09300231933594,145.09300231933594,145.09300231933594,525,0.0,0.0
2024-06-17 10:32:00-04:00,145.10499572753906,145.10499572753906,144.83999633789062,144.83999633789062,1830,0.0,0.0
2024-06-17 10:36:00-04:00,144.80999755859375,144.80999755859375,144.57000732421875,144.58999633789062,1259,0.0,0.0
2024-06-17 10:41:00-04:00,144.74000549316406,144.74000549316406,144.67999267578125,144.67999267578125,391,0.0,0.0
2024-06-17 10:44:00-04:00,144.8249969482422,144.8249969482422,144.8249969482422,144.8249969482422,737,0.0,0.0
2024-06-17 10:53:00-04:00,144.86000061035156,144.86000061035156,144.86000061035156,144.86000061035156,156,0.0,0.0
2024-06-17 10:54:00-04:00,144.9600067138672,144.9600067138672,144.9600067138672,144.9600067138672,236,0.0,0.0
2024-06-17 10:55:00-04:00,144.82000732421875,144.82000732421875,144.82000732421875,144.82000732421875,1397,0.0,0.0
2024-06-17 11:10:00-04:00,145.22500610351562,145.22500610351562,145.22500610351562,145.22500610351562,211,0.0,0.0
2024-06-17 11:12:00-04:00,145.1699981689453,145.1699981689453,145.1699981689453,145.1699981689453,209,0.0,0.0
2024-06-17 11:13:00-04:00,145.30999755859375,145.30999755859375,145.30499267578125,145.30499267578125,623,0.0,0.0
2024-06-17 11:14:00-04:00,145.32000732421875,145.32000732421875,145.32000732421875,145.32000732421875,397,0.0,0.0
2024-06-17 11:17:00-04:00,145.35499572753906,145.35499572753906,145.35499572753906,145.35499572753906,230,0.0,0.0
2024-06-17 11:19:00-04:00,145.40499877929688,145.52999877929688,145.33999633789062,145.33999633789062,1146,0.0,0.0
2024-06-17 11:20:00-04:00,145.5399932861328,145.5399932861328,145.38999938964844,145.38999938964844,1948,0.0,0.0
2024-06-17 11:23:00-04:00,145.47000122070312,145.47000122070312,145.47000122070312,145.47000122070312,176,0.0,0.0
2024-06-17 11:24:00-04:00,145.4600067138672,145.47000122070312,145.30999755859375,145.30999755859375,2822,0.0,0.0
2024-06-17 11:25:00-04:00,145.44500732421875,145.44500732421875,145.44500732421875,145.44500732421875,105,0.0,0.0
2024-06-17 11:26:00-04:00,145.57000732421875,145.74000549316406,145.30999755859375,145.30999755859375,12834,0.0,0.0
2024-06-17 11:27:00-04:00,145.61000061035156,145.72000122070312,145.4600067138672,145.72000122070312,1722,0.0,0.0
2024-06-17 11:29:00-04:00,145.61000061035156,145.61000061035156,145.61000061035156,145.61000061035156,252,0.0,0.0
2024-06-17 11:30:00-04:00,145.67999267578125,145.72999572753906,145.67999267578125,145.72999572753906,1733,0.0,0.0
2024-06-17 11:35:00-04:00,145.63999938964844,145.63999938964844,145.61000061035156,145.63999938964844,928,0.0,0.0
2024-06-17 11:37:00-04:00,145.58999633789062,145.58999633789062,145.47999572753906,145.47999572753906,872,0.0,0.0
2024-06-17 11:40:00-04:00,145.63999938964844,145.63999938964844,145.63999938964844,145.63999938964844,334,0.0,0.0
2024-06-17 11:41:00-04:00,145.5,145.5,145.5,145.5,560,0.0,0.0
2024-06-17 11:47:00-04:00,145.67999267578125,145.67999267578125,145.67999267578125,145.67999267578125,342,0.0,0.0
2024-06-17 11:49:00-04:00,145.5399932861328,145.5399932861328,145.5399932861328,145.5399932861328,416,0.0,0.0
2024-06-17 11:51:00-04:00,145.6199951171875,145.6199951171875,145.6199951171875,145.6199951171875,460,0.0,0.0
2024-06-17 11:55:00-04:00,145.77499389648438,145.77499389648438,145.77499389648438,145.77499389648438,120,0.0,0.0
2024-06-17 11:56:00-04:00,145.63999938964844,145.64500427246094,145.63999938964844,145.64500427246094,583,0.0,0.0
2024-06-17 11:59:00-04:00,145.6699981689453,145.6699981689453,145.6699981689453,145.6699981689453,183,0.0,0.0
2024-06-17 12:00:00-04:00,145.60000610351562,145.75999450683594,145.60000610351562,145.64500427246094,470,0.0,0.0
2024-06-17 12:01:00-04:00,145.75,145.75,145.75,145.75,363,0.0,0.0
2024-06-17 12:02:00-04:00,145.75999450683594,145.75999450683594,145.6999969482422,145.6999969482422,609,0.0,0.0
2024-06-17 12:05:00-04:00,145.77999877929688,145.77999877929688,145.77999877929688,145.77999877929688,779,0.0,0.0
2024-06-17 12:09:00-04:00,145.72000122070312,145.77499389648438,145.72000122070312,145.77499389648438,641,0.0,0.0
2024-06-17 12:10:00-04:00,145.80999755859375,145.80999755859375,145.80999755859375,145.80999755859375,395,0.0,0.0
2024-06-17 12:11:00-04:00,145.83999633789062,145.83999633789062,145.83999633789062,145.83999633789062,278,0.0,0.0
2024-06-17 12:13:00-04:00,145.75,145.93499755859375,145.75,145.93499755859375,495,0.0,0.0
2024-06-17 12:14:00-04:00,145.9499969482422,145.9499969482422,145.83999633789062,145.83999633789062,918,0.0,0.0
2024-06-17 12:17:00-04:00,145.97000122070312,145.97000122070312,145.97000122070312,145.97000122070312,200,0.0,0.0
2024-06-17 12:18:00-04:00,145.9149932861328,145.9149932861328,145.9149932861328,145.9149932861328,577,0.0,0.0
2024-06-17 12:19:00-04:00,145.97000122070312,145.97000122070312,145.97000122070312,145.97000122070312,412,0.0,0.0
2024-06-17 12:22:00-04:00,146.02499389648438,146.02499389648438,146.02499389648438,146.02499389648438,514,0.0,0.0
2024-06-17 12:24:00-04:00,145.99000549316406,145.99000549316406,145.99000549316406,145.99000549316406,215,0.0,0.0
2024-06-17 12:25:00-04:00,145.9199981689453,145.9199981689453,145.9199981689453,145.9199981689453,941,0.0,0.0
2024-06-17 12:29:00-04:00,146.0399932861328,146.19500732421875,146.0399932861328,146.0399932861328,744,0.0,0.0
2024-06-17 12:33:00-04:00,146.16000366210938,146.16000366210938,146.16000366210938,146.16000366210938,346,0.0,0.0
2024-06-17 12:36:00-04:00,146.1300048828125,146.1300048828125,146.1300048828125,146.1300048828125,860,0.0,0.0
2024-06-17 12:44:00-04:00,145.99000549316406,145.99000549316406,145.94000244140625,145.99000549316406,1288,0.0,0.0
2024-06-17 12:46:00-04:00,146.02000427246094,146.02000427246094,146.02000427246094,146.02000427246094,755,0.0,0.0
2024-06-17 12:50:00-04:00,146.02000427246094,146.0800018310547,146.02000427246094,146.0800018310547,427,0.0,0.0
2024-06-17 12:54:00-04:00,145.99000549316406,145.99000549316406,145.99000549316406,145.99000549316406,213,0.0,0.0
2024-06-17 12:56:00-04:00,146.05999755859375,146.05999755859375,146.05999755859375,146.05999755859375,716,0.0,0.0
2024-06-17 13:03:00-04:00,146.11000061035156,146.11000061035156,146.00999450683594,146.00999450683594,458,0.0,0.0
2024-06-17 13:07:00-04:00,146.10000610351562,146.1300048828125,146.0800018310547,146.1300048828125,1153,0.0,0.0
2024-06-17 13:09:00-04:00,146.1699981689453,146.1699981689453,146.1699981689453,146.1699981689453,291,0.0,0.0
2024-06-17 13:10:00-04:00,146.16000366210938,146.1699981689453,146.05999755859375,146.05999755859375,740,0.0,0.0
2024-06-17 13:15:00-04:00,146.0883026123047,146.0883026123047,146.0883026123047,146.0883026123047,334,0.0,0.0
2024-06-17 13:16:00-04:00,146.19000244140625,146.19000244140625,146.1199951171875,146.1199951171875,254,0.0,0.0
2024-06-17 13:17:00-04:00,146.21499633789062,146.21499633789062,146.21499633789062,146.21499633789062,580,0.0,0.0
2024-06-17 13:22:00-04:00,146.3300018310547,146.3300018310547,146.2449951171875,146.2449951171875,765,0.0,0.0
2024-06-17 13:23:00-04:00,146.19500732421875,146.19500732421875,146.19500732421875,146.19500732421875,205,0.0,0.0
2024-06-17 13:25:00-04:00,146.17999267578125,146.17999267578125,146.1699981689453,146.1699981689453,504,0.0,0.0
2024-06-17 13:26:00-04:00,146.14999389648438,146.16000366210938,146.10000610351562,146.10000610351562,1751,0.0,0.0
2024-06-17 13:33:00-04:00,146.2949981689453,146.2949981689453,146.2949981689453,146.2949981689453,277,0.0,0.0
2024-06-17 13:34:00-04:00,146.2467041015625,146.2467041015625,146.2467041015625,146.2467041015625,310,0.0,0.0
2024-06-17 13:35:00-04:00,146.26499938964844,146.26499938964844,146.26499938964844,146.26499938964844,474,0.0,0.0
2024-06-17 13:38:00-04:00,146.3000030517578,146.3000030517578,146.3000030517578,146.3000030517578,362,0.0,0.0
2024-06-17 13:40:00-04:00,146.35000610351562,146.35000610351562,146.25,146.25,1401,0.0,0.0
2024-06-17 13:42:00-04:00,146.2449951171875,146.2449951171875,146.2449951171875,146.2449951171875,228,0.0,0.0
2024-06-17 13:46:00-04:00,146.24000549316406,146.24000549316406,146.24000549316406,146.24000549316406,1446,0.0,0.0
2024-06-17 13:56:00-04:00,146.3300018310547,146.3300018310547,146.3300018310547,146.3300018310547,582,0.0,0.0
2024-06-17 13:57:00-04:00,146.35000610351562,146.35000610351562,146.35000610351562,146.35000610351562,257,0.0,0.0
2024-06-17 13:59:00-04:00,146.33999633789062,146.33999633789062,146.25999450683594,146.25999450683594,301,0.0,0.0
2024-06-17 14:00:00-04:00,146.25999450683594,146.2899932861328,146.25999450683594,146.27000427246094,688,0.0,0.0
2024-06-17 14:01:00-04:00,146.3549041748047,146.3549041748047,146.3549041748047,146.3549041748047,385,0.0,0.0
2024-06-17 14:02:00-04:00,146.30999755859375,146.30999755859375,146.30999755859375,146.30999755859375,277,0.0,0.0
2024-06-17 14:04:00-04:00,146.25,146.3000030517578,146.25,146.25999450683594,594,0.0,0.0
2024-06-17 14:07:00-04:00,146.35000610351562,146.48500061035156,146.35000610351562,146.48500061035156,760,0.0,0.0
2024-06-17 14:08:00-04:00,146.4199981689453,146.4199981689453,146.4199981689453,146.4199981689453,101,0.0,0.0
2024-06-17 14:09:00-04:00,146.5050048828125,146.5050048828125,146.5050048828125,146.5050048828125,448,0.0,0.0
2024-06-17 14:11:00-04:00,146.4499969482422,146.4499969482422,146.42999267578125,146.42999267578125,755,0.0,0.0
2024-06-17 14:12:00-04:00,146.38499450683594,146.38499450683594,146.38499450683594,146.38499450683594,453,0.0,0.0
2024-06-17 14:14:00-04:00,146.39999389648438,146.4799041748047,146.39999389648438,146.4799041748047,938,0.0,0.0
2024-06-17 14:15:00-04:00,146.32000732421875,146.32000732421875,146.32000732421875,146.32000732421875,457,0.0,0.0
2024-06-17 14:18:00-04:00,146.4149932861328,146.4149932861328,146.4149932861328,146.4149932861328,411,0.0,0.0
2024-06-17 14:21:00-04:00,146.38999938964844,146.38999938964844,146.38999938964844,146.38999938964844,288,0.0,0.0
2024-06-17 14:22:00-04:00,146.38999938964844,146.38999938964844,146.38999938964844,146.38999938964844,1041,0.0,0.0
2024-06-17 14:29:00-04:00,146.4600067138672,146.4949951171875,146.4600067138672,146.4949951171875,745,0.0,0.0
2024-06-17 14:32:00-04:00,146.52999877929688,146.52999877929688,146.4499969482422,146.52000427246094,522,0.0,0.0
2024-06-17 14:33:00-04:00,146.4499969482422,146.4499969482422,146.4199981689453,146.44000244140625,1473,0.0,0.0
2024-06-17 14:38:00-04:00,146.5196990966797,146.5196990966797,146.44000244140625,146.44000244140625,1968,0.0,0.0
2024-06-17 14:44:00-04:00,146.46499633789062,146.46499633789062,146.46499633789062,146.46499633789062,254,0.0,0.0
2024-06-17 14:45:00-04:00,146.39999389648438,146.4199981689453,146.32000732421875,146.32000732421875,1638,0.0,0.0
2024-06-17 14:46:00-04:00,146.3000030517578,146.3000030517578,146.17999267578125,146.17999267578125,627,0.0,0.0
2024-06-17 14:47:00-04:00,146.2100067138672,146.2100067138672,146.2100067138672,146.2100067138672,331,0.0,0.0
2024-06-17 14:48:00-04:00,146.27000427246094,146.27000427246094,146.27000427246094,146.27000427246094,206,0.0,0.0
2024-06-17 14:50:00-04:00,146.19000244140625,146.19000244140625,146.19000244140625,146.19000244140625,786,0.0,0.0
2024-06-17 14:53:00-04:00,146.27000427246094,146.30999755859375,146.27000427246094,146.30999755859375,1029,0.0,0.0
2024-06-17 14:55:00-04:00,146.2550048828125,146.2550048828125,146.2550048828125,146.2550048828125,741,0.0,0.0
2024-06-17 14:57:00-04:00,146.3000030517578,146.30999755859375,146.2899932861328,146.30999755859375,1013,0.0,0.0
2024-06-17 14:58:00-04:00,146.4550018310547,146.4550018310547,146.4550018310547,146.4550018310547,232,0.0,0.0
2024-06-17 15:01:00-04:00,146.38999938964844,146.38999938964844,146.38999938964844,146.38999938964844,756,0.0,0.0
2024-06-17 15:05:00-04:00,146.41000366210938,146.41000366210938,146.3699951171875,146.3699951171875,1237,0.0,0.0
2024-06-17 15:06:00-04:00,146.39999389648438,146.39999389648438,146.39999389648438,146.39999389648438,559,0.0,0.0
2024-06-17 15:09:00-04:00,146.3800048828125,146.3800048828125,146.3800048828125,146.3800048828125,269,0.0,0.0
2024-06-17 15:10:00-04:00,146.36000061035156,146.36000061035156,146.36000061035156,146.36000061035156,910,0.0,0.0
2024-06-17 15:12:00-04:00,146.42999267578125,146.42999267578125,146.42999267578125,146.42999267578125,346,0.0,0.0
2024-06-17 15:13:00-04:00,146.4499969482422,146.4600067138672,146.42999267578125,146.4600067138672,1071,0.0,0.0
2024-06-17 15:15:00-04:00,146.44000244140625,146.44000244140625,146.2899932861328,146.4149932861328,3117,0.0,0.0
2024-06-17 15:18:00-04:00,146.4600067138672,146.4600067138672,146.41000366210938,146.41000366210938,965,0.0,0.0
2024-06-17 15:20:00-04:00,146.50999450683594,146.57000732421875,146.50999450683594,146.57000732421875,1290,0.0,0.0
2024-06-17 15:22:00-04:00,146.49000549316406,146.49000549316406,146.49000549316406,146.49000549316406,730,0.0,0.0
2024-06-17 15:23:00-04:00,146.49000549316406,146.49000549316406,146.49000549316406,146.49000549316406,2251,0.0,0.0
2024-06-17 15:29:00-04:00,146.5500030517578,146.60000610351562,146.5500030517578,146.60000610351562,884,0.0,0.0
2024-06-17 15:30:00-04:00,146.60499572753906,146.67990112304688,146.52999877929688,146.52999877929688,2431,0.0,0.0
2024-06-17 15:32:00-04:00,146.54769897460938,146.61000061035156,146.54769897460938,146.61000061035156,600,0.0,0.0
2024-06-17 15:33:00-04:00,146.61000061035156,146.61000061035156,146.60000610351562,146.60000610351562,392,0.0,0.0
2024-06-17 15:34:00-04:00,146.60000610351562,146.60000610351562,146.60000610351562,146.60000610351562,235,0.0,0.0
2024-06-17 15:35:00-04:00,146.5399932861328,146.5399932861328,146.36000061035156,146.36000061035156,2747,0.0,0.0
2024-06-17 15:36:00-04:00,146.34500122070312,146.35000610351562,146.34500122070312,146.35000610351562,773,0.0,0.0
2024-06-17 15:37:00-04:00,146.32000732421875,146.32000732421875,146.32000732421875,146.32000732421875,730,0.0,0.0
2024-06-17 15:38:00-04:00,146.25999450683594,146.2949981689453,146.2100067138672,146.2949981689453,822,0.0,0.0
2024-06-17 15:39:00-04:00,146.27000427246094,146.3300018310547,146.27000427246094,146.3300018310547,1066,0.0,0.0
2024-06-17 15:40:00-04:00,146.36500549316406,146.36500549316406,146.36500549316406,146.36500549316406,641,0.0,0.0
2024-06-17 15:41:00-04:00,146.41000366210938,146.47000122070312,146.41000366210938,146.47000122070312,1707,0.0,0.0
2024-06-17 15:43:00-04:00,146.3699951171875,146.3699951171875,146.36000061035156,146.3699951171875,975,0.0,0.0
2024-06-17 15:44:00-04:00,146.3000030517578,146.30499267578125,146.16000366210938,146.1750030517578,1939,0.0,0.0
2024-06-17 15:45:00-04:00,146.10000610351562,146.14500427246094,146.10000610351562,146.11000061035156,704,0.0,0.0
2024-06-17 15:47:00-04:00,146.1300048828125,146.16000366210938,146.1300048828125,146.16000366210938,1041,0.0,0.0
2024-06-17 15:48:00-04:00,146.1199951171875,146.1199951171875,146.0399932861328,146.0399932861328,3311,0.0,0.0
2024-06-17 15:50:00-04:00,146.07000732421875,146.07000732421875,146.07000732421875,146.07000732421875,1767,0.0,0.0
2024-06-17 15:51:00-04:00,146.1199951171875,146.16000366210938,146.11000061035156,146.14999389648438,2334,0.0,0.0
2024-06-17 15:52:00-04:00,146.11000061035156,146.11000061035156,145.97000122070312,145.97500610351562,2137,0.0,0.0
2024-06-17 15:53:00-04:00,145.99000549316406,146.03500366210938,145.97000122070312,146.03500366210938,2099,0.0,0.0
2024-06-17 15:54:00-04:00,146.02000427246094,146.1999969482422,146.02000427246094,146.17999267578125,1886,0.0,0.0
2024-06-17 15:55:00-04:00,146.11000061035156,146.11000061035156,146.0500030517578,146.08999633789062,2569,0.0,0.0
2024-06-17 15:56:00-04:00,146.0800018310547,146.0800018310547,146.00999450683594,146.00999450683594,2692,0.0,0.0
2024-06-17 15:57:00-04:00,146.00999450683594,146.1999969482422,146.00999450683594,146.1999969482422,6046,0.0,0.0
2024-06-17 15:58:00-04:00,146.1999969482422,146.22000122070312,146.13999938964844,146.19000244140625,3825,0.0,0.0
2024-06-17 15:59:00-04:00,146.16000366210938,146.38999938964844,146.16000366210938,146.32000732421875,14037,0.0,0.0
2024-06-18 09:30:00-04:00,146.47999572753906,146.47999572753906,146.47999572753906,146.47999572753906,1226,0.0,0.0
2024-06-18 09:32:00-04:00,147.44000244140625,147.44000244140625,147.44000244140625,147.44000244140625,306,0.0,0.0
2024-06-18 09:44:00-04:00,146.63999938964844,146.6699981689453,146.63999938964844,146.6699981689453,433,0.0,0.0
2024-06-18 09:49:00-04:00,146.89500427246094,146.89500427246094,146.89500427246094,146.89500427246094,373,0.0,0.0
2024-06-18 09:53:00-04:00,146.9250030517578,146.9250030517578,146.9250030517578,146.9250030517578,204,0.0,0.0
2024-06-18 09:54:00-04:00,147.0500030517578,147.10000610351562,146.9250030517578,147.10000610351562,363,0.0,0.0
2024-06-18 09:55:00-04:00,146.8000030517578,146.8000030517578,146.75999450683594,146.75999450683594,1849,0.0,0.0
2024-06-18 09:58:00-04:00,146.56500244140625,146.56500244140625,146.56500244140625,146.56500244140625,322,0.0,0.0
2024-06-18 10:02:00-04:00,146.69000244140625,146.69000244140625,146.69000244140625,146.69000244140625,597,0.0,0.0
2024-06-18 10:03:00-04:00,146.6300048828125,146.6300048828125,146.6300048828125,146.6300048828125,305,0.0,0.0
2024-06-18 10:05:00-04:00,146.60499572753906,146.60499572753906,146.60499572753906,146.60499572753906,381,0.0,0.0
2024-06-18 10:08:00-04:00,146.75999450683594,146.77000427246094,146.75999450683594,146.77000427246094,574,0.0,0.0
2024-06-18 10:09:00-04:00,146.83999633789062,146.83999633789062,146.83999633789062,146.83999633789062,113,0.0,0.0
2024-06-18 10:10:00-04:00,146.89500427246094,146.89500427246094,146.89500427246094,146.89500427246094,209,0.0,0.0
2024-06-18 10:12:00-04:00,146.67999267578125,146.91000366210938,146.67999267578125,146.91000366210938,511,0.0,0.0
2024-06-18 10:16:00-04:00,146.81500244140625,146.81500244140625,146.81500244140625,146.81500244140625,178,0.0,0.0
2024-06-18 10:17:00-04:00,146.9199981689453,146.9199981689453,146.9199981689453,146.9199981689453,1170,0.0,0.0
2024-06-18 10:22:00-04:00,146.94500732421875,146.94500732421875,146.94500732421875,146.94500732421875,501,0.0,0.0
2024-06-18 10:24:00-04:00,146.8350067138672,146.8350067138672,146.7100067138672,146.77999877929688,2382,0.0,0.0
2024-06-18 10:26:00-04:00,146.7899932861328,146.7899932861328,146.7899932861328,146.7899932861328,156,0.0,0.0
2024-06-18 10:27:00-04:00,146.7899932861328,146.7899932861328,146.7899932861328,146.7899932861328,133,0.0,0.0
2024-06-18 10:30:00-04:00,146.8800048828125,146.94000244140625,146.8800048828125,146.94000244140625,858,0.0,0.0
2024-06-18 10:33:00-04:00,146.97000122070312,146.97000122070312,146.9600067138672,146.9600067138672,226,0.0,0.0
2024-06-18 10:34:00-04:00,146.9600067138672,146.9600067138672,146.9600067138672,146.9600067138672,174,0.0,0.0
2024-06-18 10:35:00-04:00,147.0399932861328,147.0399932861328,147.0399932861328,147.0399932861328,221,0.0,0.0
2024-06-18 10:36:00-04:00,146.9459991455078,146.9459991455078,146.9459991455078,146.9459991455078,381,0.0,0.0
2024-06-18 10:40:00-04:00,147.0500030517578,147.0500030517578,146.9550018310547,146.9550018310547,380,0.0,0.0
2024-06-18 10:43:00-04:00,147.08999633789062,147.14999389648438,147.08999633789062,147.14999389648438,1382,0.0,0.0
2024-06-18 10:44:00-04:00,147.02740478515625,147.1999969482422,146.9600067138672,146.9600067138672,2169,0.0,0.0
2024-06-18 10:47:00-04:00,147.02999877929688,147.02999877929688,147.02999877929688,147.02999877929688,111,0.0,0.0
2024-06-18 10:49:00-04:00,147.00999450683594,147.00999450683594,146.85000610351562,146.88999938964844,1702,0.0,0.0
2024-06-18 10:54:00-04:00,146.92999267578125,146.92999267578125,146.92999267578125,146.92999267578125,129,0.0,0.0
2024-06-18 10:55:00-04:00,146.97000122070312,147.00999450683594,146.88999938964844,146.9949951171875,1378,0.0,0.0
2024-06-18 10:56:00-04:00,146.98500061035156,146.98500061035156,146.98500061035156,146.98500061035156,331,0.0,0.0
2024-06-18 10:59:00-04:00,146.97999572753906,146.97999572753906,146.97999572753906,146.97999572753906,398,0.0,0.0
2024-06-18 11:00:00-04:00,147.12989807128906,147.12989807128906,147.12989807128906,147.12989807128906,405,0.0,0.0
2024-06-18 11:02:00-04:00,146.97999572753906,146.97999572753906,146.97999572753906,146.97999572753906,515,0.0,0.0
2024-06-18 11:06:00-04:00,146.86000061035156,146.86000061035156,146.8300018310547,146.8300018310547,1055,0.0,0.0
2024-06-18 11:09:00-04:00,146.85499572753906,146.85499572753906,146.85499572753906,146.85499572753906,291,0.0,0.0
2024-06-18 11:10:00-04:00,146.82000732421875,146.82000732421875,146.64999389648438,146.64999389648438,1401,0.0,0.0
2024-06-18 11:12:00-04:00,146.80999755859375,146.86000061035156,146.80999755859375,146.85000610351562,730,0.0,0.0
2024-06-18 11:15:00-04:00,146.9575958251953,147.11000061035156,146.9575958251953,147.11000061035156,459,0.0,0.0
2024-06-18 11:16:00-04:00,146.9600067138672,146.9600067138672,146.9600067138672,146.9600067138672,112,0.0,0.0
2024-06-18 11:18:00-04:00,146.97999572753906,146.97999572753906,146.97999572753906,146.97999572753906,360,0.0,0.0
2024-06-18 11:20:00-04:00,147.10000610351562,147.14999389648438,146.99000549316406,146.99000549316406,1270,0.0,0.0
2024-06-18 11:22:00-04:00,147.13250732421875,147.13250732421875,147.13250732421875,147.13250732421875,103,0.0,0.0
2024-06-18 11:23:00-04:00,147.13499450683594,147.13499450683594,146.97000122070312,146.97000122070312,921,0.0,0.0
2024-06-18 11:24:00-04:00,146.94000244140625,146.94000244140625,146.94000244140625,146.94000244140625,263,0.0,0.0
2024-06-18 11:28:00-04:00,146.92999267578125,146.92999267578125,146.92999267578125,146.92999267578125,107,0.0,0.0
2024-06-18 11:29:00-04:00,146.92999267578125,146.92999267578125,146.92999267578125,146.92999267578125,249,0.0,0.0
2024-06-18 11:31:00-04:00,146.88999938964844,146.88999938964844,146.80999755859375,146.80999755859375,270,0.0,0.0
2024-06-18 11:32:00-04:00,146.85499572753906,146.85499572753906,146.85499572753906,146.85499572753906,279,0.0,0.0
2024-06-18 11:34:00-04:00,146.85499572753906,146.85499572753906,146.85499572753906,146.85499572753906,771,0.0,0.0
2024-06-18 11:36:00-04:00,146.99000549316406,146.99000549316406,146.99000549316406,146.99000549316406,334,0.0,0.0
2024-06-18 11:40:00-04:00,147.00999450683594,147.00999450683594,147.00999450683594,147.00999450683594,182,0.0,0.0
2024-06-18 11:41:00-04:00,146.93499755859375,146.93499755859375,146.93499755859375,146.93499755859375,128,0.0,0.0
2024-06-18 11:42:00-04:00,146.93499755859375,146.93499755859375,146.91000366210938,146.91000366210938,358,0.0,0.0
2024-06-18 11:44:00-04:00,146.8699951171875,146.9199981689453,146.8699951171875,146.9199981689453,1845,0.0,0.0
2024-06-18 11:46:00-04:00,146.98109436035156,146.98109436035156,146.98109436035156,146.98109436035156,512,0.0,0.0
2024-06-18 11:50:00-04:00,147.11000061035156,147.11000061035156,147.05999755859375,147.05999755859375,497,0.0,0.0
2024-06-18 11:52:00-04:00,147.2100067138672,147.2100067138672,147.2100067138672,147.2100067138672,131,0.0,0.0
2024-06-18 11:53:00-04:00,147.1999969482422,147.1999969482422,147.1999969482422,147.1999969482422,306,0.0,0.0
2024-06-18 11:55:00-04:00,147.33999633789062,147.33999633789062,147.33999633789062,147.33999633789062,105,0.0,0.0
2024-06-18 11:56:00-04:00,147.33999633789062,147.33999633789062,147.33999633789062,147.33999633789062,382,0.0,0.0
2024-06-18 11:59:00-04:00,147.32000732421875,147.32000732421875,147.32000732421875,147.32000732421875,100,0.0,0.0
2024-06-18 12:00:00-04:00,147.22000122070312,147.22000122070312,147.22000122070312,147.22000122070312,293,0.0,0.0
2024-06-18 12:04:00-04:00,147.2899932861328,147.2899932861328,147.23500061035156,147.23500061035156,207,0.0,0.0
2024-06-18 12:05:00-04:00,147.27999877929688,147.3000030517578,147.23500061035156,147.3000030517578,613,0.0,0.0
2024-06-18 12:07:00-04:00,147.3300018310547,147.3300018310547,147.3300018310547,147.3300018310547,605,0.0,0.0
2024-06-18 12:08:00-04:00,147.3300018310547,147.38999938964844,147.3300018310547,147.38999938964844,733,0.0,0.0
2024-06-18 12:10:00-04:00,147.52000427246094,147.52000427246094,147.52000427246094,147.52000427246094,1122,0.0,0.0
2024-06-18 12:12:00-04:00,147.4250030517578,147.4250030517578,147.4250030517578,147.4250030517578,179,0.0,0.0
2024-06-18 12:14:00-04:00,147.4149932861328,147.4149932861328,147.4149932861328,147.4149932861328,100,0.0,0.0
2024-06-18 12:15:00-04:00,147.47999572753906,147.50999450683594,147.47999572753906,147.50999450683594,725,0.0,0.0
2024-06-18 12:17:00-04:00,147.57000732421875,147.57000732421875,147.57000732421875,147.57000732421875,134,0.0,0.0
2024-06-18 12:18:00-04:00,147.57000732421875,147.5800018310547,147.55999755859375,147.55999755859375,833,0.0,0.0
2024-06-18 12:19:00-04:00,147.63499450683594,147.63499450683594,147.63499450683594,147.63499450683594,536,0.0,0.0
2024-06-18 12:20:00-04:00,147.55999755859375,147.69000244140625,147.55999755859375,147.69000244140625,1789,0.0,0.0
2024-06-18 12:21:00-04:00,147.5800018310547,147.5800018310547,147.49000549316406,147.49000549316406,2193,0.0,0.0
2024-06-18 12:23:00-04:00,147.43499755859375,147.43499755859375,147.43499755859375,147.43499755859375,255,0.0,0.0
2024-06-18 12:26:00-04:00,147.44500732421875,147.44500732421875,147.44500732421875,147.44500732421875,150,0.0,0.0
2024-06-18 12:27:00-04:00,147.44500732421875,147.44500732421875,147.44500732421875,147.44500732421875,117,0.0,0.0
2024-06-18 12:28:00-04:00,147.33999633789062,147.33999633789062,147.33999633789062,147.33999633789062,793,0.0,0.0
2024-06-18 12:30:00-04:00,147.33999633789062,147.47000122070312,147.30999755859375,147.31500244140625,1442,0.0,0.0
2024-06-18 12:31:00-04:00,147.1699981689453,147.1699981689453,147.1699981689453,147.1699981689453,290,0.0,0.0
2024-06-18 12:32:00-04:00,147.17999267578125,147.25999450683594,147.1699981689453,147.1699981689453,869,0.0,0.0
2024-06-18 12:33:00-04:00,147.22999572753906,147.22999572753906,147.22999572753906,147.22999572753906,697,0.0,0.0
2024-06-18 12:39:00-04:00,146.97999572753906,146.97999572753906,146.97999572753906,146.97999572753906,259,0.0,0.0
2024-06-18 12:40:00-04:00,147.09500122070312,147.09500122070312,147.09500122070312,147.09500122070312,294,0.0,0.0
2024-06-18 12:41:00-04:00,147.33999633789062,147.33999633789062,147.33999633789062,147.33999633789062,102,0.0,0.0
2024-06-18 12:42:00-04:00,147.41000366210938,147.41000366210938,147.41000366210938,147.41000366210938,183,0.0,0.0
2024-06-18 12:44:00-04:00,147.30999755859375,147.30999755859375,147.30999755859375,147.30999755859375,357,0.0,0.0
2024-06-18 12:45:00-04:00,147.2100067138672,147.3000030517578,147.17999267578125,147.2100067138672,1355,0.0,0.0
2024-06-18 12:50:00-04:00,147.1300048828125,147.1300048828125,147.10000610351562,147.10000610351562,640,0.0,0.0
2024-06-18 12:53:00-04:00,147.11000061035156,147.11000061035156,147.11000061035156,147.11000061035156,147,0.0,0.0
2024-06-18 12:54:00-04:00,147.19000244140625,147.19000244140625,147.19000244140625,147.19000244140625,146,0.0,0.0
2024-06-18 12:57:00-04:00,147.11500549316406,147.11500549316406,147.11500549316406,147.11500549316406,226,0.0,0.0
2024-06-18 12:58:00-04:00,147.08999633789062,147.08999633789062,147.08999633789062,147.08999633789062,288,0.0,0.0
2024-06-18 12:59:00-04:00,147.08999633789062,147.1199951171875,147.08999633789062,147.1199951171875,1356,0.0,0.0
2024-06-18 13:00:00-04:00,147.05999755859375,147.05999755859375,147.05999755859375,147.05999755859375,267,0.0,0.0
2024-06-18 13:01:00-04:00,147.1199951171875,147.1199951171875,147.1199951171875,147.1199951171875,1542,0.0,0.0
2024-06-18 13:05:00-04:00,147.0500030517578,147.05999755859375,147.0,147.0500030517578,1767,0.0,0.0
2024-06-18 13:06:00-04:00,146.9499969482422,146.9499969482422,146.9499969482422,146.9499969482422,494,0.0,0.0
2024-06-18 13:09:00-04:00,146.88999938964844,146.88999938964844,146.88999938964844,146.88999938964844,409,0.0,0.0
2024-06-18 13:10:00-04:00,146.97000122070312,146.97000122070312,146.97000122070312,146.97000122070312,126,0.0,0.0
2024-06-18 13:12:00-04:00,146.97000122070312,147.10000610351562,146.97000122070312,147.10000610351562,1787,0.0,0.0
2024-06-18 13:15:00-04:00,147.27999877929688,147.27999877929688,147.27999877929688,147.27999877929688,245,0.0,0.0
2024-06-18 13:17:00-04:00,147.10499572753906,147.10499572753906,147.10499572753906,147.10499572753906,100,0.0,0.0
2024-06-18 13:18:00-04:00,147.1999969482422,147.1999969482422,147.1999969482422,147.1999969482422,125,0.0,0.0
2024-06-18 13:19:00-04:00,147.2100067138672,147.2100067138672,147.2100067138672,147.2100067138672,100,0.0,0.0
2024-06-18 13:20:00-04:00,147.10499572753906,147.10499572753906,147.10499572753906,147.10499572753906,220,0.0,0.0
2024-06-18 13:21:00-04:00,147.19500732421875,147.2100067138672,147.19500732421875,147.2100067138672,580,0.0,0.0
2024-06-18 13:24:00-04:00,147.24000549316406,147.24000549316406,147.1699981689453,147.1699981689453,305,0.0,0.0
2024-06-18 13:25:00-04:00,147.30999755859375,147.30999755859375,147.30999755859375,147.30999755859375,285,0.0,0.0
2024-06-18 13:27:00-04:00,147.21499633789062,147.21499633789062,147.21499633789062,147.21499633789062,275,0.0,0.0
2024-06-18 13:29:00-04:00,147.11000061035156,147.25,147.11000061035156,147.25,1756,0.0,0.0
2024-06-18 13:31:00-04:00,147.16000366210938,147.16000366210938,147.16000366210938,147.16000366210938,307,0.0,0.0
2024-06-18 13:33:00-04:00,147.13499450683594,147.13499450683594,147.13499450683594,147.13499450683594,525,0.0,0.0
2024-06-18 13:35:00-04:00,147.22000122070312,147.24000549316406,147.22000122070312,147.24000549316406,264,0.0,0.0
2024-06-18 13:36:00-04:00,147.2100067138672,147.2100067138672,147.2100067138672,147.2100067138672,308,0.0,0.0
2024-06-18 13:39:00-04:00,147.22000122070312,147.22000122070312,147.22000122070312,147.22000122070312,281,0.0,0.0
2024-06-18 13:40:00-04:00,147.3000030517578,147.3000030517578,147.3000030517578,147.3000030517578,260,0.0,0.0
2024-06-18 13:42:00-04:00,147.1999969482422,147.1999969482422,147.1999969482422,147.1999969482422,124,0.0,0.0
2024-06-18 13:44:00-04:00,147.1999969482422,147.1999969482422,147.1999969482422,147.1999969482422,380,0.0,0.0
2024-06-18 13:46:00-04:00,147.2050018310547,147.3000030517578,147.2050018310547,147.3000030517578,334,0.0,0.0
2024-06-18 13:47:00-04:00,147.2050018310547,147.2050018310547,147.2050018310547,147.2050018310547,108,0.0,0.0
2024-06-18 13:48:00-04:00,147.2899932861328,147.2899932861328,147.2899932861328,147.2899932861328,687,0.0,0.0
2024-06-18 13:54:00-04:00,147.15069580078125,147.15069580078125,147.15069580078125,147.15069580078125,348,0.0,0.0
2024-06-18 13:56:00-04:00,147.2050018310547,147.2050018310547,147.2050018310547,147.2050018310547,861,0.0,0.0
2024-06-18 13:57:00-04:00,147.16000366210938,147.17999267578125,147.16000366210938,147.17999267578125,200,0.0,0.0
2024-06-18 13:58:00-04:00,147.22500610351562,147.22500610351562,147.1199951171875,147.1300048828125,4143,0.0,0.0
2024-06-18 14:00:00-04:00,147.11000061035156,147.11000061035156,147.11000061035156,147.11000061035156,407,0.0,0.0
2024-06-18 14:02:00-04:00,147.02999877929688,147.0399932861328,147.02999877929688,147.0399932861328,528,0.0,0.0
2024-06-18 14:03:00-04:00,146.9600067138672,146.9600067138672,146.8699951171875,146.8699951171875,610,0.0,0.0
2024-06-18 14:04:00-04:00,146.97000122070312,147.0,146.8699951171875,147.0,1164,0.0,0.0
2024-06-18 14:06:00-04:00,147.02999877929688,147.02999877929688,147.02999877929688,147.02999877929688,642,0.0,0.0
2024-06-18 14:10:00-04:00,147.1199951171875,147.1199951171875,147.1199951171875,147.1199951171875,457,0.0,0.0
2024-06-18 14:14:00-04:00,147.07000732421875,147.07000732421875,146.97000122070312,146.97000122070312,1559,0.0,0.0
2024-06-18 14:18:00-04:00,146.82000732421875,146.82000732421875,146.82000732421875,146.82000732421875,345,0.0,0.0
2024-06-18 14:20:00-04:00,146.82000732421875,146.82000732421875,146.75999450683594,146.75999450683594,841,0.0,0.0
2024-06-18 14:22:00-04:00,146.75,146.75999450683594,146.69000244140625,146.72000122070312,981,0.0,0.0
2024-06-18 14:23:00-04:00,146.6300048828125,146.6699981689453,146.6300048828125,146.6699981689453,378,0.0,0.0
2024-06-18 14:24:00-04:00,146.8000030517578,146.8000030517578,146.8000030517578,146.8000030517578,266,0.0,0.0
2024-06-18 14:26:00-04:00,146.69000244140625,146.69000244140625,146.67999267578125,146.67999267578125,961,0.0,0.0
2024-06-18 14:28:00-04:00,146.8300018310547,146.8300018310547,146.80999755859375,146.8300018310547,382,0.0,0.0
2024-06-18 14:29:00-04:00,146.76499938964844,146.76499938964844,146.76499938964844,146.76499938964844,547,0.0,0.0
2024-06-18 14:32:00-04:00,146.8000030517578,146.8000030517578,146.75,146.75,578,0.0,0.0
2024-06-18 14:33:00-04:00,146.75,146.75,146.75,146.75,249,0.0,0.0
2024-06-18 14:34:00-04:00,146.74000549316406,146.74000549316406,146.74000549316406,146.74000549316406,466,0.0,0.0
2024-06-18 14:37:00-04:00,146.6699981689453,146.6699981689453,146.64999389648438,146.64999389648438,1029,0.0,0.0
2024-06-18 14:38:00-04:00,146.64999389648438,146.64999389648438,146.6300048828125,146.64599609375,1083,0.0,0.0
2024-06-18 14:40:00-04:00,146.6195068359375,146.6199951171875,146.59500122070312,146.61000061035156,1271,0.0,0.0
2024-06-18 14:41:00-04:00,146.57000732421875,146.5800018310547,146.57000732421875,146.5800018310547,752,0.0,0.0
2024-06-18 14:42:00-04:00,146.6199951171875,146.7698974609375,146.6199951171875,146.6649932861328,974,0.0,0.0
2024-06-18 14:43:00-04:00,146.77999877929688,146.80499267578125,146.75999450683594,146.80499267578125,1130,0.0,0.0
2024-06-18 14:46:00-04:00,146.67999267578125,146.67999267578125,146.6699981689453,146.67999267578125,719,0.0,0.0
2024-06-18 14:49:00-04:00,146.80999755859375,146.80999755859375,146.72999572753906,146.72999572753906,212,0.0,0.0
2024-06-18 14:50:00-04:00,146.64999389648438,146.72000122070312,146.64999389648438,146.72000122070312,564,0.0,0.0
2024-06-18 14:52:00-04:00,146.69000244140625,146.74000549316406,146.6699981689453,146.74000549316406,1281,0.0,0.0
2024-06-18 14:53:00-04:00,146.69500732421875,146.69500732421875,146.69500732421875,146.69500732421875,253,0.0,0.0
2024-06-18 14:54:00-04:00,146.77499389648438,146.77499389648438,146.77499389648438,146.77499389648438,499,0.0,0.0
2024-06-18 14:56:00-04:00,146.69000244140625,146.69000244140625,146.69000244140625,146.69000244140625,468,0.0,0.0
2024-06-18 14:58:00-04:00,146.72000122070312,146.72000122070312,146.72000122070312,146.72000122070312,1622,0.0,0.0
2024-06-18 15:01:00-04:00,146.72999572753906,146.72999572753906,146.72999572753906,146.72999572753906,581,0.0,0.0
2024-06-18 15:03:00-04:00,146.6699981689453,146.72000122070312,146.6699981689453,146.6750030517578,1345,0.0,0.0
2024-06-18 15:05:00-04:00,146.71499633789062,146.71499633789062,146.71499633789062,146.71499633789062,263,0.0,0.0
2024-06-18 15:06:00-04:00,146.69000244140625,146.69000244140625,146.6300048828125,146.6300048828125,1036,0.0,0.0
2024-06-18 15:07:00-04:00,146.6300048828125,146.6300048828125,146.6300048828125,146.6300048828125,305,0.0,0.0
2024-06-18 15:09:00-04:00,146.58999633789062,146.58999633789062,146.49000549316406,146.5399932861328,2155,0.0,0.0
2024-06-18 15:15:00-04:00,146.55499267578125,146.55499267578125,146.47000122070312,146.49000549316406,1084,0.0,0.0
2024-06-18 15:16:00-04:00,146.4709014892578,146.47999572753906,146.4709014892578,146.47999572753906,968,0.0,0.0
2024-06-18 15:17:00-04:00,146.60000610351562,146.6199951171875,146.60000610351562,146.6199951171875,897,0.0,0.0
2024-06-18 15:19:00-04:00,146.6199951171875,146.6199951171875,146.6199951171875,146.6199951171875,812,0.0,0.0
2024-06-18 15:20:00-04:00,146.72000122070312,146.72000122070312,146.72000122070312,146.72000122070312,472,0.0,0.0
2024-06-18 15:22:00-04:00,146.6999969482422,146.6999969482422,146.57000732421875,146.57000732421875,2044,0.0,0.0
2024-06-18 15:26:00-04:00,146.55999755859375,146.55999755859375,146.55999755859375,146.55999755859375,925,0.0,0.0
2024-06-18 15:30:00-04:00,146.50999450683594,146.50999450683594,146.50999450683594,146.50999450683594,1009,0.0,0.0
2024-06-18 15:32:00-04:00,146.52000427246094,146.57000732421875,146.52000427246094,146.57000732421875,1203,0.0,0.0
2024-06-18 15:34:00-04:00,146.55999755859375,146.6199951171875,146.55999755859375,146.6199951171875,849,0.0,0.0
2024-06-18 15:35:00-04:00,146.64500427246094,146.74000549316406,146.64500427246094,146.74000549316406,391,0.0,0.0
2024-06-18 15:36:00-04:00,146.74000549316406,146.74000549316406,146.74000549316406,146.74000549316406,829,0.0,0.0
2024-06-18 15:38:00-04:00,146.74000549316406,146.74000549316406,146.64999389648438,146.6699981689453,3503,0.0,0.0
2024-06-18 15:39:00-04:00,146.6699981689453,146.6699981689453,146.6699981689453,146.6699981689453,340,0.0,0.0
2024-06-18 15:40:00-04:00,146.66000366210938,146.66000366210938,146.66000366210938,146.66000366210938,640,0.0,0.0
2024-06-18 15:41:00-04:00,146.72999572753906,146.72999572753906,146.72999572753906,146.72999572753906,1060,0.0,0.0
2024-06-18 15:42:00-04:00,146.73500061035156,146.73500061035156,146.73500061035156,146.73500061035156,486,0.0,0.0
2024-06-18 15:43:00-04:00,146.7899932861328,146.80999755859375,146.7899932861328,146.80999755859375,553,0.0,0.0
2024-06-18 15:44:00-04:00,146.80999755859375,146.80999755859375,146.80999755859375,146.80999755859375,320,0.0,0.0
2024-06-18 15:45:00-04:00,146.7899932861328,146.80999755859375,146.73800659179688,146.73800659179688,1256,0.0,0.0
2024-06-18 15:46:00-04:00,146.72999572753906,146.72999572753906,146.72000122070312,146.72000122070312,872,0.0,0.0
2024-06-18 15:47:00-04:00,146.75,146.75,146.75,146.75,490,0.0,0.0
2024-06-18 15:48:00-04:00,146.7899932861328,146.8350067138672,146.7899932861328,146.8350067138672,745,0.0,0.0
2024-06-18 15:49:00-04:00,146.83999633789062,146.91000366210938,146.77999877929688,146.77999877929688,2140,0.0,0.0
2024-06-18 15:50:00-04:00,146.8000030517578,146.85499572753906,146.8000030517578,146.85499572753906,1516,0.0,0.0
2024-06-18 15:51:00-04:00,146.85000610351562,146.85499572753906,146.83999633789062,146.85000610351562,885,0.0,0.0
2024-06-18 15:52:00-04:00,146.9149932861328,146.9149932861328,146.9149932861328,146.9149932861328,1533,0.0,0.0
2024-06-18 15:53:00-04:00,147.00999450683594,147.00999450683594,146.9600067138672,146.9600067138672,1952,0.0,0.0
2024-06-18 15:54:00-04:00,146.97000122070312,146.99000549316406,146.94000244140625,146.9600067138672,5173,0.0,0.0
2024-06-18 15:55:00-04:00,146.9199981689453,146.9499969482422,146.8800048828125,146.9499969482422,6686,0.0,0.0
2024-06-18 15:56:00-04:00,146.9499969482422,146.97999572753906,146.9199981689453,146.93499755859375,2233,0.0,0.0
2024-06-18 15:57:00-04:00,146.97999572753906,146.97999572753906,146.88999938964844,146.94000244140625,4622,0.0,0.0
2024-06-18 15:58:00-04:00,146.8800048828125,146.8800048828125,146.74000549316406,146.75999450683594,3367,0.0,0.0
2024-06-18 15:59:00-04:00,146.75999450683594,146.8800048828125,146.66000366210938,146.77999877929688,7550,0.0,0.0
2024-06-20 09:30:00-04:00,146.66000366210938,146.66000366210938,146.66000366210938,146.66000366210938,2696,0.0,0.0
2024-06-20 09:31:00-04:00,146.60499572753906,146.60499572753906,146.60499572753906,146.60499572753906,446,0.0,0.0
2024-06-20 09:32:00-04:00,146.60499572753906,146.60499572753906,146.60499572753906,146.60499572753906,105,0.0,0.0
2024-06-20 09:34:00-04:00,146.6199951171875,146.6199951171875,146.6199951171875,146.6199951171875,283,0.0,0.0
2024-06-20 09:35:00-04:00,145.8800048828125,145.8800048828125,145.8800048828125,145.8800048828125,365,0.0,0.0
2024-06-20 09:40:00-04:00,147.52999877929688,147.52999877929688,147.52999877929688,147.52999877929688,157,0.0,0.0
2024-06-20 09:42:00-04:00,146.63999938964844,146.63999938964844,146.63999938964844,146.63999938964844,276,0.0,0.0
2024-06-20 09:45:00-04:00,147.5,147.5,147.5,147.5,104,0.0,0.0
2024-06-20 09:48:00-04:00,146.66000366210938,147.49000549316406,146.66000366210938,147.49000549316406,532,0.0,0.0
2024-06-20 09:55:00-04:00,146.6750030517578,146.6750030517578,146.6750030517578,146.6750030517578,235,0.0,0.0
2024-06-20 09:57:00-04:00,147.3300018310547,147.3300018310547,147.3300018310547,147.3300018310547,110,0.0,0.0
2024-06-20 09:58:00-04:00,146.1199951171875,147.24000549316406,146.1199951171875,146.14999389648438,1345,0.0,0.0
2024-06-20 09:59:00-04:00,146.68499755859375,146.68499755859375,146.68499755859375,146.68499755859375,251,0.0,0.0
2024-06-20 10:03:00-04:00,146.69000244140625,146.69000244140625,146.69000244140625,146.69000244140625,873,0.0,0.0
2024-06-20 10:05:00-04:00,146.65499877929688,146.66000366210938,146.65499877929688,146.66000366210938,450,0.0,0.0
2024-06-20 10:06:00-04:00,146.3300018310547,146.3300018310547,146.3300018310547,146.3300018310547,110,0.0,0.0
2024-06-20 10:07:00-04:00,146.9499969482422,146.9499969482422,146.9499969482422,146.9499969482422,276,0.0,0.0
2024-06-20 10:09:00-04:00,146.71499633789062,146.71499633789062,146.63999938964844,146.63999938964844,578,0.0,0.0
2024-06-20 10:11:00-04:00,146.8699951171875,146.8699951171875,146.8699951171875,146.8699951171875,278,0.0,0.0
2024-06-20 10:12:00-04:00,146.74000549316406,146.74000549316406,146.74000549316406,146.74000549316406,148,0.0,0.0
2024-06-20 10:13:00-04:00,146.69500732421875,146.69500732421875,146.69500732421875,146.69500732421875,688,0.0,0.0
2024-06-20 10:16:00-04:00,146.85000610351562,146.8699951171875,146.85000610351562,146.8699951171875,1557,0.0,0.0
2024-06-20 10:18:00-04:00,146.82000732421875,146.82000732421875,146.82000732421875,146.82000732421875,531,0.0,0.0
2024-06-20 10:19:00-04:00,146.9149932861328,146.9149932861328,146.9149932861328,146.9149932861328,459,0.0,0.0
2024-06-20 10:22:00-04:00,146.96499633789062,147.0050048828125,146.95750427246094,146.96499633789062,610,0.0,0.0
2024-06-20 10:25:00-04:00,147.02499389648438,147.02499389648438,147.02000427246094,147.02000427246094,406,0.0,0.0
2024-06-20 10:28:00-04:00,147.1199951171875,147.1699981689453,147.1199951171875,147.1699981689453,562,0.0,0.0
2024-06-20 10:29:00-04:00,147.1999969482422,147.1999969482422,147.1999969482422,147.1999969482422,683,0.0,0.0
2024-06-20 10:33:00-04:00,147.22000122070312,147.22000122070312,147.22000122070312,147.22000122070312,196,0.0,0.0
2024-06-20 10:35:00-04:00,147.22000122070312,147.22000122070312,147.22000122070312,147.22000122070312,449,0.0,0.0
2024-06-20 10:38:00-04:00,147.1699981689453,147.2550048828125,147.08999633789062,147.22000122070312,3313,0.0,0.0
2024-06-20 10:40:00-04:00,147.22000122070312,147.22000122070312,147.22000122070312,147.22000122070312,157,0.0,0.0
2024-06-20 10:41:00-04:00,147.19500732421875,147.19500732421875,147.19500732421875,147.19500732421875,319,0.0,0.0
2024-06-20 10:42:00-04:00,147.08999633789062,147.08999633789062,147.08999633789062,147.08999633789062,890,0.0,0.0
2024-06-20 10:44:00-04:00,147.09500122070312,147.09500122070312,147.09500122070312,147.09500122070312,493,0.0,0.0
2024-06-20 10:48:00-04:00,147.22000122070312,147.22000122070312,147.14500427246094,147.14500427246094,656,0.0,0.0
2024-06-20 10:52:00-04:00,147.1199951171875,147.1199951171875,147.1199951171875,147.1199951171875,211,0.0,0.0
2024-06-20 10:53:00-04:00,147.13999938964844,147.13999938964844,147.13999938964844,147.13999938964844,448,0.0,0.0
2024-06-20 10:54:00-04:00,147.1300048828125,147.1300048828125,147.1300048828125,147.1300048828125,101,0.0,0.0
2024-06-20 10:55:00-04:00,147.0500030517578,147.0500030517578,147.00999450683594,147.02000427246094,1572,0.0,0.0
2024-06-20 10:58:00-04:00,147.07000732421875,147.07000732421875,147.07000732421875,147.07000732421875,238,0.0,0.0
2024-06-20 11:01:00-04:00,147.13250732421875,147.13250732421875,147.13250732421875,147.13250732421875,313,0.0,0.0
2024-06-20 11:04:00-04:00,147.0850067138672,147.19000244140625,147.0850067138672,147.1125030517578,849,0.0,0.0
2024-06-20 11:05:00-04:00,147.0800018310547,147.0800018310547,147.0800018310547,147.0800018310547,278,0.0,0.0
2024-06-20 11:07:00-04:00,147.1199951171875,147.1199951171875,147.1199951171875,147.1199951171875,100,0.0,0.0
2024-06-20 11:09:00-04:00,146.97000122070312,146.97000122070312,146.94000244140625,146.97000122070312,2261,0.0,0.0
2024-06-20 11:14:00-04:00,146.9600067138672,146.9949951171875,146.9600067138672,146.9949951171875,303,0.0,0.0
2024-06-20 11:15:00-04:00,146.9949951171875,146.9949951171875,146.9949951171875,146.9949951171875,303,0.0,0.0
2024-06-20 11:16:00-04:00,147.1199951171875,147.1199951171875,147.10499572753906,147.10499572753906,953,0.0,0.0
2024-06-20 11:17:00-04:00,147.11000061035156,147.11000061035156,147.11000061035156,147.11000061035156,151,0.0,0.0
2024-06-20 11:18:00-04:00,147.13999938964844,147.13999938964844,147.13999938964844,147.13999938964844,199,0.0,0.0
2024-06-20 11:19:00-04:00,147.0,147.0,147.0,147.0,1099,0.0,0.0
2024-06-20 11:22:00-04:00,146.92999267578125,146.92999267578125,146.92999267578125,146.92999267578125,1469,0.0,0.0
2024-06-20 11:23:00-04:00,146.8800048828125,146.8800048828125,146.8800048828125,146.8800048828125,188,0.0,0.0
2024-06-20 11:25:00-04:00,146.75999450683594,146.75999450683594,146.75999450683594,146.75999450683594,506,0.0,0.0
2024-06-20 11:29:00-04:00,146.74000549316406,146.74000549316406,146.74000549316406,146.74000549316406,573,0.0,0.0
2024-06-20 11:36:00-04:00,146.60000610351562,146.60000610351562,146.60000610351562,146.60000610351562,217,0.0,0.0
2024-06-20 11:37:00-04:00,146.58999633789062,146.58999633789062,146.58999633789062,146.58999633789062,780,0.0,0.0
2024-06-20 11:44:00-04:00,146.58999633789062,146.58999633789062,146.58999633789062,146.58999633789062,220,0.0,0.0
2024-06-20 11:45:00-04:00,146.69000244140625,146.69000244140625,146.69000244140625,146.69000244140625,801,0.0,0.0
2024-06-20 11:46:00-04:00,146.6999969482422,146.74000549316406,146.6999969482422,146.74000549316406,609,0.0,0.0
2024-06-20 11:49:00-04:00,146.7100067138672,146.7100067138672,146.7100067138672,146.7100067138672,115,0.0,0.0
2024-06-20 11:50:00-04:00,146.60000610351562,146.69920349121094,146.60000610351562,146.69920349121094,1031,0.0,0.0
2024-06-20 11:55:00-04:00,146.58999633789062,146.7050018310547,146.58999633789062,146.7050018310547,420,0.0,0.0
2024-06-20 11:56:00-04:00,146.7050018310547,146.7050018310547,146.7050018310547,146.7050018310547,281,0.0,0.0
2024-06-20 11:58:00-04:00,146.82000732421875,146.82000732421875,146.82000732421875,146.82000732421875,443,0.0,0.0
2024-06-20 12:06:00-04:00,146.71090698242188,146.71090698242188,146.71090698242188,146.71090698242188,436,0.0,0.0
2024-06-20 12:07:00-04:00,146.6199951171875,146.69000244140625,146.6199951171875,146.69000244140625,1086,0.0,0.0
2024-06-20 12:12:00-04:00,146.65499877929688,146.65499877929688,146.65499877929688,146.65499877929688,186,0.0,0.0
2024-06-20 12:16:00-04:00,146.63999938964844,146.63999938964844,146.63999938964844,146.63999938964844,431,0.0,0.0
2024-06-20 12:17:00-04:00,146.66000366210938,146.66000366210938,146.66000366210938,146.66000366210938,103,0.0,0.0
2024-06-20 12:18:00-04:00,146.66000366210938,146.66000366210938,146.66000366210938,146.66000366210938,129,0.0,0.0
2024-06-20 12:19:00-04:00,146.65499877929688,146.65499877929688,146.65499877929688,146.65499877929688,100,0.0,0.0
2024-06-20 12:20:00-04:00,146.66000366210938,146.66000366210938,146.66000366210938,146.66000366210938,292,0.0,0.0
2024-06-20 12:23:00-04:00,146.65499877929688,146.65499877929688,146.65499877929688,146.65499877929688,182,0.0,0.0
2024-06-20 12:24:00-04:00,146.58999633789062,146.58999633789062,146.58999633789062,146.58999633789062,1206,0.0,0.0
2024-06-20 12:25:00-04:00,146.63499450683594,146.63499450683594,146.63499450683594,146.63499450683594,377,0.0,0.0
2024-06-20 12:28:00-04:00,146.5800018310547,146.5800018310547,146.5800018310547,146.5800018310547,845,0.0,0.0
2024-06-20 12:30:00-04:00,146.58999633789062,146.58999633789062,146.5800018310547,146.5800018310547,1519,0.0,0.0
2024-06-20 12:33:00-04:00,146.6199951171875,146.63999938964844,146.6199951171875,146.63999938964844,303,0.0,0.0
2024-06-20 12:34:00-04:00,146.63999938964844,146.63999938964844,146.63999938964844,146.63999938964844,488,0.0,0.0
2024-06-20 12:39:00-04:00,146.63499450683594,146.63499450683594,146.63499450683594,146.63499450683594,379,0.0,0.0
2024-06-20 12:45:00-04:00,146.57000732421875,146.5800018310547,146.52999877929688,146.57000732421875,1969,0.0,0.0
2024-06-20 12:50:00-04:00,146.58999633789062,146.58999633789062,146.58999633789062,146.58999633789062,727,0.0,0.0
2024-06-20 12:59:00-04:00,146.58999633789062,146.58999633789062,146.58999633789062,146.58999633789062,382,0.0,0.0
2024-06-20 13:01:00-04:00,146.5,146.5,146.47000122070312,146.47999572753906,1056,0.0,0.0
2024-06-20 13:03:00-04:00,146.3699951171875,146.3699951171875,146.32000732421875,146.32000732421875,409,0.0,0.0
2024-06-20 13:04:00-04:00,146.2899932861328,146.2899932861328,146.2899932861328,146.2899932861328,548,0.0,0.0
2024-06-20 13:08:00-04:00,146.1699981689453,146.1699981689453,146.1300048828125,146.1300048828125,1056,0.0,0.0
2024-06-20 13:09:00-04:00,146.1300048828125,146.1300048828125,146.1300048828125,146.1300048828125,145,0.0,0.0
2024-06-20 13:10:00-04:00,146.16000366210938,146.16000366210938,146.16000366210938,146.16000366210938,111,0.0,0.0
2024-06-20 13:11:00-04:00,146.15499877929688,146.27000427246094,146.15499877929688,146.1699981689453,1565,0.0,0.0
2024-06-20 13:13:00-04:00,146.1699981689453,146.1699981689453,146.1699981689453,146.1699981689453,1388,0.0,0.0
2024-06-20 13:18:00-04:00,146.0800018310547,146.0800018310547,146.0800018310547,146.0800018310547,252,0.0,0.0
2024-06-20 13:20:00-04:00,146.16000366210938,146.1699981689453,146.05999755859375,146.10499572753906,2067,0.0,0.0
2024-06-20 13:21:00-04:00,146.0,146.0,146.0,146.0,225,0.0,0.0
2024-06-20 13:22:00-04:00,145.97999572753906,145.97999572753906,145.97999572753906,145.97999572753906,192,0.0,0.0
2024-06-20 13:23:00-04:00,145.89999389648438,145.89999389648438,145.88999938964844,145.88999938964844,501,0.0,0.0
2024-06-20 13:24:00-04:00,145.89999389648438,145.89999389648438,145.89999389648438,145.89999389648438,732,0.0,0.0
2024-06-20 13:33:00-04:00,145.8350067138672,145.8350067138672,145.8350067138672,145.8350067138672,299,0.0,0.0
2024-06-20 13:34:00-04:00,145.8350067138672,145.8350067138672,145.8350067138672,145.8350067138672,1055,0.0,0.0
2024-06-20 13:37:00-04:00,145.94000244140625,145.94000244140625,145.92999267578125,145.92999267578125,1218,0.0,0.0
2024-06-20 13:39:00-04:00,145.92999267578125,145.92999267578125,145.92999267578125,145.92999267578125,123,0.0,0.0
2024-06-20 13:40:00-04:00,145.94000244140625,145.94000244140625,145.94000244140625,145.94000244140625,247,0.0,0.0
2024-06-20 13:45:00-04:00,145.94000244140625,145.94000244140625,145.94000244140625,145.94000244140625,734,0.0,0.0
2024-06-20 13:51:00-04:00,145.94500732421875,145.94500732421875,145.94500732421875,145.94500732421875,118,0.0,0.0
2024-06-20 13:52:00-04:00,145.97000122070312,145.97000122070312,145.97000122070312,145.97000122070312,364,0.0,0.0
2024-06-20 13:56:00-04:00,145.97000122070312,146.02999877929688,145.97000122070312,146.02999877929688,491,0.0,0.0
2024-06-20 13:57:00-04:00,145.97500610351562,145.97500610351562,145.97500610351562,145.97500610351562,169,0.0,0.0
2024-06-20 13:58:00-04:00,146.02999877929688,146.02999877929688,146.02999877929688,146.02999877929688,301,0.0,0.0
2024-06-20 14:00:00-04:00,145.9499969482422,145.9499969482422,145.91000366210938,145.91000366210938,1152,0.0,0.0
2024-06-20 14:05:00-04:00,146.0,146.17999267578125,146.0,146.17999267578125,1588,0.0,0.0
2024-06-20 14:06:00-04:00,146.1750030517578,146.17999267578125,146.1750030517578,146.17999267578125,524,0.0,0.0
2024-06-20 14:08:00-04:00,146.27000427246094,146.30499267578125,146.25999450683594,146.30499267578125,1037,0.0,0.0
2024-06-20 14:09:00-04:00,146.34500122070312,146.34500122070312,146.2949981689453,146.2949981689453,391,0.0,0.0
2024-06-20 14:11:00-04:00,146.32000732421875,146.4149932861328,146.32000732421875,146.41000366210938,2246,0.0,0.0
2024-06-20 14:13:00-04:00,146.44500732421875,146.44500732421875,146.44500732421875,146.44500732421875,584,0.0,0.0
2024-06-20 14:14:00-04:00,146.5,146.5,146.3800048828125,146.3800048828125,934,0.0,0.0
2024-06-20 14:15:00-04:00,146.41000366210938,146.41000366210938,146.41000366210938,146.41000366210938,510,0.0,0.0
2024-06-20 14:16:00-04:00,146.47000122070312,146.47000122070312,146.41000366210938,146.41000366210938,800,0.0,0.0
2024-06-20 14:17:00-04:00,146.57000732421875,146.5800018310547,146.57000732421875,146.5800018310547,815,0.0,0.0
2024-06-20 14:18:00-04:00,146.72000122070312,146.73500061035156,146.65499877929688,146.66000366210938,1058,0.0,0.0
2024-06-20 14:19:00-04:00,146.6199951171875,146.6199951171875,146.47999572753906,146.47999572753906,1592,0.0,0.0
2024-06-20 14:20:00-04:00,146.47999572753906,146.47999572753906,146.47999572753906,146.47999572753906,264,0.0,0.0
2024-06-20 14:22:00-04:00,146.51499938964844,146.60000610351562,146.50999450683594,146.50999450683594,849,0.0,0.0
2024-06-20 14:23:00-04:00,146.52499389648438,146.6199951171875,146.52499389648438,146.6199951171875,640,0.0,0.0
2024-06-20 14:24:00-04:00,146.69000244140625,146.69000244140625,146.69000244140625,146.69000244140625,697,0.0,0.0
2024-06-20 14:26:00-04:00,146.50999450683594,146.50999450683594,146.22000122070312,146.22000122070312,2779,0.0,0.0
2024-06-20 14:30:00-04:00,146.30499267578125,146.30499267578125,146.30499267578125,146.30499267578125,755,0.0,0.0
2024-06-20 14:34:00-04:00,146.1999969482422,146.23500061035156,146.1999969482422,146.23500061035156,497,0.0,0.0
2024-06-20 14:35:00-04:00,146.1300048828125,146.1300048828125,146.1300048828125,146.1300048828125,2098,0.0,0.0
2024-06-20 14:40:00-04:00,146.125,146.125,146.125,146.125,238,0.0,0.0
2024-06-20 14:41:00-04:00,146.07000732421875,146.07000732421875,146.07000732421875,146.07000732421875,229,0.0,0.0
2024-06-20 14:43:00-04:00,146.05999755859375,146.07000732421875,146.05999755859375,146.07000732421875,380,0.0,0.0
2024-06-20 14:44:00-04:00,145.99000549316406,145.99000549316406,145.99000549316406,145.99000549316406,508,0.0,0.0
2024-06-20 14:47:00-04:00,146.01499938964844,146.01499938964844,146.01499938964844,146.01499938964844,817,0.0,0.0
2024-06-20 14:50:00-04:00,146.08999633789062,146.08999633789062,146.0449981689453,146.0449981689453,1176,0.0,0.0
2024-06-20 14:57:00-04:00,145.97999572753906,145.97999572753906,145.97999572753906,145.97999572753906,579,0.0,0.0
2024-06-20 15:00:00-04:00,145.9499969482422,145.9499969482422,145.9499969482422,145.9499969482422,462,0.0,0.0
2024-06-20 15:02:00-04:00,145.9499969482422,145.9600067138672,145.9499969482422,145.9499969482422,764,0.0,0.0
2024-06-20 15:03:00-04:00,145.94000244140625,145.9600067138672,145.88999938964844,145.9600067138672,2459,0.0,0.0
2024-06-20 15:06:00-04:00,145.9199981689453,145.9199981689453,145.9199981689453,145.9199981689453,504,0.0,0.0
2024-06-20 15:08:00-04:00,145.9550018310547,145.9550018310547,145.9550018310547,145.9550018310547,2020,0.0,0.0
2024-06-20 15:19:00-04:00,145.92999267578125,145.94000244140625,145.92999267578125,145.94000244140625,700,0.0,0.0
2024-06-20 15:20:00-04:00,145.92999267578125,145.92999267578125,145.92999267578125,145.92999267578125,434,0.0,0.0
2024-06-20 15:22:00-04:00,145.9499969482422,145.9499969482422,145.9499969482422,145.9499969482422,269,0.0,0.0
2024-06-20 15:24:00-04:00,146.0,146.0,146.0,146.0,330,0.0,0.0
2024-06-20 15:27:00-04:00,145.97470092773438,145.97470092773438,145.89999389648438,145.89999389648438,584,0.0,0.0
2024-06-20 15:29:00-04:00,146.0,146.0,145.9949951171875,145.9949951171875,1006,0.0,0.0
2024-06-20 15:30:00-04:00,146.0399932861328,146.0399932861328,146.0399932861328,146.0399932861328,326,0.0,0.0
2024-06-20 15:31:00-04:00,146.07000732421875,146.07000732421875,146.07000732421875,146.07000732421875,141,0.0,0.0
2024-06-20 15:32:00-04:00,146.00999450683594,146.00999450683594,146.00999450683594,146.00999450683594,735,0.0,0.0
2024-06-20 15:35:00-04:00,145.9499969482422,145.9600067138672,145.89999389648438,145.9550018310547,2260,0.0,0.0
2024-06-20 15:36:00-04:00,145.88999938964844,145.88999938964844,145.88999938964844,145.88999938964844,366,0.0,0.0
2024-06-20 15:37:00-04:00,145.8699951171875,145.88499450683594,145.86000061035156,145.88499450683594,676,0.0,0.0
2024-06-20 15:38:00-04:00,145.96200561523438,145.97000122070312,145.88999938964844,145.88999938964844,938,0.0,0.0
2024-06-20 15:39:00-04:00,145.9600067138672,145.9600067138672,145.9600067138672,145.9600067138672,1139,0.0,0.0
2024-06-20 15:45:00-04:00,145.86000061035156,145.9149932861328,145.86000061035156,145.9149932861328,570,0.0,0.0
2024-06-20 15:46:00-04:00,145.97000122070312,145.97000122070312,145.94000244140625,145.94000244140625,1049,0.0,0.0
2024-06-20 15:47:00-04:00,145.9499969482422,145.9499969482422,145.8000030517578,145.8000030517578,1784,0.0,0.0
2024-06-20 15:48:00-04:00,145.72999572753906,145.72999572753906,145.71499633789062,145.71499633789062,1008,0.0,0.0
2024-06-20 15:49:00-04:00,145.77999877929688,145.77999877929688,145.77999877929688,145.77999877929688,341,0.0,0.0
2024-06-20 15:50:00-04:00,145.6999969482422,145.6999969482422,145.6999969482422,145.6999969482422,1228,0.0,0.0
2024-06-20 15:51:00-04:00,145.6699981689453,145.6999969482422,145.6699981689453,145.6999969482422,245,0.0,0.0
2024-06-20 15:52:00-04:00,145.69500732421875,145.8300018310547,145.69500732421875,145.77999877929688,2443,0.0,0.0
2024-06-20 15:53:00-04:00,145.75999450683594,145.75999450683594,145.75999450683594,145.75999450683594,733,0.0,0.0
2024-06-20 15:54:00-04:00,145.82000732421875,145.8699951171875,145.82000732421875,145.8699951171875,1187,0.0,0.0
2024-06-20 15:55:00-04:00,145.88999938964844,145.88999938964844,145.8300018310547,145.86000061035156,3436,0.0,0.0
2024-06-20 15:56:00-04:00,145.82000732421875,145.8300018310547,145.82000732421875,145.8300018310547,1334,0.0,0.0
2024-06-20 15:57:00-04:00,145.82000732421875,145.89999389648438,145.80999755859375,145.89999389648438,3520,0.0,0.0
2024-06-20 15:58:00-04:00,145.92999267578125,145.92999267578125,145.82000732421875,145.88999938964844,2313,0.0,0.0
2024-06-20 15:59:00-04:00,145.8300018310547,145.97000122070312,145.77000427246094,145.7899932861328,12178,0.0,0.0
2024-06-21 09:30:00-04:00,145.8699951171875,145.8699951171875,145.3300018310547,145.3300018310547,30956,0.0,0.0
2024-06-21 09:39:00-04:00,146.52000427246094,146.52000427246094,146.52000427246094,146.52000427246094,210,0.0,0.0
2024-06-21 09:42:00-04:00,146.52000427246094,146.52000427246094,146.52000427246094,146.52000427246094,219,0.0,0.0
2024-06-21 09:47:00-04:00,146.52000427246094,146.52000427246094,146.52000427246094,146.52000427246094,233,0.0,0.0
2024-06-21 09:56:00-04:00,146.4199981689453,146.4199981689453,145.39999389648438,145.39999389648438,415,0.0,0.0
2024-06-21 09:57:00-04:00,145.35000610351562,145.35000610351562,145.30999755859375,145.30999755859375,751,0.0,0.0
2024-06-21 10:02:00-04:00,145.72000122070312,145.97500610351562,145.6699981689453,145.97500610351562,1657,0.0,0.0
2024-06-21 10:04:00-04:00,145.72999572753906,145.75,145.72999572753906,145.72999572753906,1026,0.0,0.0
2024-06-21 10:07:00-04:00,145.8699951171875,145.8699951171875,145.8699951171875,145.8699951171875,1605,0.0,0.0
2024-06-21 10:20:00-04:00,146.02000427246094,146.02000427246094,146.02000427246094,146.02000427246094,634,0.0,0.0
2024-06-21 10:25:00-04:00,145.85000610351562,145.89999389648438,145.83999633789062,145.89999389648438,1117,0.0,0.0
2024-06-21 10:26:00-04:00,145.7899932861328,145.9199981689453,145.7899932861328,145.9199981689453,867,0.0,0.0
2024-06-21 10:31:00-04:00,145.8300018310547,145.8300018310547,145.8300018310547,145.8300018310547,321,0.0,0.0
2024-06-21 10:34:00-04:00,145.75,145.75,145.75,145.75,318,0.0,0.0
2024-06-21 10:37:00-04:00,145.7100067138672,145.7100067138672,145.7100067138672,145.7100067138672,506,0.0,0.0
2024-06-21 10:39:00-04:00,145.6999969482422,145.6999969482422,145.6999969482422,145.6999969482422,109,0.0,0.0
2024-06-21 10:40:00-04:00,145.69000244140625,145.69000244140625,145.69000244140625,145.69000244140625,169,0.0,0.0
2024-06-21 10:41:00-04:00,145.69000244140625,145.69000244140625,145.69000244140625,145.69000244140625,592,0.0,0.0
2024-06-21 10:50:00-04:00,145.91000366210938,145.91000366210938,145.91000366210938,145.91000366210938,125,0.0,0.0
2024-06-21 10:51:00-04:00,145.69000244140625,145.69000244140625,145.69000244140625,145.69000244140625,266,0.0,0.0
2024-06-21 10:53:00-04:00,145.91000366210938,145.91000366210938,145.91000366210938,145.91000366210938,1091,0.0,0.0
2024-06-21 10:55:00-04:00,146.00999450683594,146.00999450683594,146.00999450683594,146.00999450683594,159,0.0,0.0
2024-06-21 10:56:00-04:00,146.00999450683594,146.00999450683594,146.00999450683594,146.00999450683594,298,0.0,0.0
2024-06-21 10:58:00-04:00,146.00999450683594,146.00999450683594,146.00999450683594,146.00999450683594,224,0.0,0.0
2024-06-21 10:59:00-04:00,145.82769775390625,145.82769775390625,145.82769775390625,145.82769775390625,262,0.0,0.0
2024-06-21 11:02:00-04:00,145.72999572753906,145.86500549316406,145.72999572753906,145.86500549316406,210,0.0,0.0
2024-06-21 11:03:00-04:00,146.00999450683594,146.00999450683594,146.00999450683594,146.00999450683594,154,0.0,0.0
2024-06-21 11:04:00-04:00,146.00999450683594,146.00999450683594,146.00999450683594,146.00999450683594,475,0.0,0.0
2024-06-21 11:08:00-04:00,146.00999450683594,146.00999450683594,145.97000122070312,145.97000122070312,885,0.0,0.0
2024-06-21 11:10:00-04:00,145.88999938964844,145.90499877929688,145.80999755859375,145.90499877929688,927,0.0,0.0
2024-06-21 11:14:00-04:00,145.94000244140625,145.94000244140625,145.90499877929688,145.90499877929688,797,0.0,0.0
2024-06-21 11:15:00-04:00,145.89999389648438,145.89999389648438,145.89999389648438,145.89999389648438,125,0.0,0.0
2024-06-21 11:18:00-04:00,145.99000549316406,145.99000549316406,145.99000549316406,145.99000549316406,491,0.0,0.0
2024-06-21 11:20:00-04:00,145.9199981689453,145.9199981689453,145.9199981689453,145.9199981689453,124,0.0,0.0
2024-06-21 11:21:00-04:00,146.00999450683594,146.00999450683594,146.00999450683594,146.00999450683594,689,0.0,0.0
2024-06-21 11:25:00-04:00,145.83999633789062,145.83999633789062,145.8300018310547,145.8300018310547,1321,0.0,0.0
2024-06-21 11:26:00-04:00,145.66000366210938,145.7050018310547,145.66000366210938,145.7050018310547,1144,0.0,0.0
2024-06-21 11:35:00-04:00,145.7324981689453,145.88999938964844,145.7324981689453,145.88999938964844,2549,0.0,0.0
2024-06-21 11:38:00-04:00,146.0,146.0,146.0,146.0,815,0.0,0.0
2024-06-21 11:43:00-04:00,146.07000732421875,146.07000732421875,146.07000732421875,146.07000732421875,589,0.0,0.0
2024-06-21 11:48:00-04:00,145.9774932861328,145.99749755859375,145.9774932861328,145.99749755859375,416,0.0,0.0
2024-06-21 11:49:00-04:00,145.96749877929688,145.96749877929688,145.96749877929688,145.96749877929688,413,0.0,0.0
2024-06-21 11:53:00-04:00,146.0800018310547,146.0800018310547,146.0800018310547,146.0800018310547,364,0.0,0.0
2024-06-21 11:55:00-04:00,146.14999389648438,146.14999389648438,146.14999389648438,146.14999389648438,563,0.0,0.0
2024-06-21 11:57:00-04:00,146.1999969482422,146.1999969482422,146.1999969482422,146.1999969482422,878,0.0,0.0
2024-06-21 12:05:00-04:00,146.2100067138672,146.24000549316406,146.2100067138672,146.24000549316406,849,0.0,0.0
2024-06-21 12:13:00-04:00,146.24000549316406,146.24000549316406,146.24000549316406,146.24000549316406,205,0.0,0.0
2024-06-21 12:16:00-04:00,146.07000732421875,146.07000732421875,146.07000732421875,146.07000732421875,658,0.0,0.0
2024-06-21 12:19:00-04:00,145.91000366210938,145.96499633789062,145.57000732421875,145.72000122070312,4032,0.0,0.0
2024-06-21 12:24:00-04:00,145.57000732421875,145.57000732421875,145.57000732421875,145.57000732421875,116,0.0,0.0
2024-06-21 12:25:00-04:00,145.66000366210938,145.66000366210938,145.66000366210938,145.66000366210938,217,0.0,0.0
2024-06-21 12:27:00-04:00,145.72000122070312,145.72000122070312,145.72000122070312,145.72000122070312,423,0.0,0.0
2024-06-21 12:29:00-04:00,145.72000122070312,145.72000122070312,145.72000122070312,145.72000122070312,211,0.0,0.0
2024-06-21 12:30:00-04:00,145.72000122070312,145.72999572753906,145.72000122070312,145.72000122070312,1259,0.0,0.0
2024-06-21 12:31:00-04:00,145.64999389648438,145.74000549316406,145.64999389648438,145.74000549316406,978,0.0,0.0
2024-06-21 12:34:00-04:00,145.78500366210938,145.78500366210938,145.78500366210938,145.78500366210938,687,0.0,0.0
2024-06-21 12:43:00-04:00,145.82000732421875,145.82000732421875,145.82000732421875,145.82000732421875,1438,0.0,0.0
2024-06-21 12:59:00-04:00,145.8000030517578,145.8000030517578,145.8000030517578,145.8000030517578,1173,0.0,0.0
2024-06-21 13:16:00-04:00,145.75999450683594,145.75999450683594,145.75999450683594,145.75999450683594,300,0.0,0.0
2024-06-21 13:18:00-04:00,145.75999450683594,145.75999450683594,145.75999450683594,145.75999450683594,281,0.0,0.0
2024-06-21 13:20:00-04:00,145.64999389648438,145.64999389648438,145.6199951171875,145.6300048828125,1521,0.0,0.0
2024-06-21 13:23:00-04:00,145.55670166015625,145.55670166015625,145.55670166015625,145.55670166015625,1183,0.0,0.0
2024-06-21 13:29:00-04:00,145.54490661621094,145.54490661621094,145.54490661621094,145.54490661621094,156,0.0,0.0
2024-06-21 13:30:00-04:00,145.56500244140625,145.56500244140625,145.56500244140625,145.56500244140625,544,0.0,0.0
2024-06-21 13:31:00-04:00,145.63999938964844,145.66000366210938,145.63999938964844,145.66000366210938,1128,0.0,0.0
2024-06-21 13:32:00-04:00,145.75999450683594,145.75999450683594,145.75999450683594,145.75999450683594,275,0.0,0.0
2024-06-21 13:34:00-04:00,145.77999877929688,145.77999877929688,145.77999877929688,145.77999877929688,598,0.0,0.0
2024-06-21 13:36:00-04:00,145.57000732421875,145.64500427246094,145.57000732421875,145.64500427246094,985,0.0,0.0
2024-06-21 13:45:00-04:00,145.6846923828125,145.6846923828125,145.6846923828125,145.6846923828125,1028,0.0,0.0
2024-06-21 13:54:00-04:00,145.72000122070312,145.72999572753906,145.72000122070312,145.72999572753906,1228,0.0,0.0
2024-06-21 14:02:00-04:00,145.74000549316406,145.74000549316406,145.7259979248047,145.7259979248047,854,0.0,0.0
2024-06-21 14:03:00-04:00,145.6699981689453,145.71499633789062,145.66000366210938,145.6999969482422,3267,0.0,0.0
2024-06-21 14:07:00-04:00,145.88999938964844,145.92999267578125,145.88999938964844,145.92999267578125,530,0.0,0.0
2024-06-21 14:10:00-04:00,145.85000610351562,145.85000610351562,145.85000610351562,145.85000610351562,900,0.0,0.0
2024-06-21 14:18:00-04:00,145.72000122070312,145.72000122070312,145.72000122070312,145.72000122070312,330,0.0,0.0
2024-06-21 14:22:00-04:00,145.97999572753906,145.97999572753906,145.97999572753906,145.97999572753906,290,0.0,0.0
2024-06-21 14:24:00-04:00,145.7899932861328,145.7899932861328,145.72000122070312,145.72000122070312,748,0.0,0.0
2024-06-21 14:29:00-04:00,145.8300018310547,146.05999755859375,145.80999755859375,146.05999755859375,5195,0.0,0.0
2024-06-21 14:36:00-04:00,146.07989501953125,146.07989501953125,146.07989501953125,146.07989501953125,304,0.0,0.0
2024-06-21 14:37:00-04:00,146.07000732421875,146.07000732421875,146.07000732421875,146.07000732421875,900,0.0,0.0
2024-06-21 14:46:00-04:00,146.0800018310547,146.0800018310547,145.98500061035156,145.98500061035156,17836,0.0,0.0
2024-06-21 14:48:00-04:00,145.97999572753906,145.97999572753906,145.97999572753906,145.97999572753906,640,0.0,0.0
2024-06-21 14:49:00-04:00,145.8699951171875,145.97999572753906,145.8699951171875,145.97000122070312,1172,0.0,0.0
2024-06-21 14:50:00-04:00,145.97999572753906,146.1199951171875,145.97999572753906,146.1199951171875,3561,0.0,0.0
2024-06-21 14:59:00-04:00,146.2100067138672,146.2100067138672,146.2100067138672,146.2100067138672,532,0.0,0.0
2024-06-21 15:00:00-04:00,146.23500061035156,146.3800048828125,146.23500061035156,146.3800048828125,1514,0.0,0.0
2024-06-21 15:01:00-04:00,146.39999389648438,146.5399932861328,146.35000610351562,146.5399932861328,3702,0.0,0.0
2024-06-21 15:03:00-04:00,146.5399932861328,146.5399932861328,146.5399932861328,146.5399932861328,435,0.0,0.0
2024-06-21 15:04:00-04:00,146.5399932861328,146.5399932861328,146.5399932861328,146.5399932861328,971,0.0,0.0
2024-06-21 15:10:00-04:00,146.35789489746094,146.52499389648438,146.35789489746094,146.52499389648438,510,0.0,0.0
2024-06-21 15:11:00-04:00,146.5399932861328,146.5399932861328,146.44500732421875,146.44500732421875,794,0.0,0.0
2024-06-21 15:13:00-04:00,146.52000427246094,146.52000427246094,146.52000427246094,146.52000427246094,435,0.0,0.0
2024-06-21 15:15:00-04:00,146.3800048828125,146.3800048828125,146.13999938964844,146.13999938964844,4382,0.0,0.0
2024-06-21 15:20:00-04:00,146.19000244140625,146.3699951171875,146.16000366210938,146.32000732421875,5070,0.0,0.0
2024-06-21 15:23:00-04:00,146.3249969482422,146.3249969482422,146.3249969482422,146.3249969482422,950,0.0,0.0
2024-06-21 15:29:00-04:00,146.34800720214844,146.34800720214844,146.30999755859375,146.30999755859375,1095,0.0,0.0
2024-06-21 15:33:00-04:00,146.3800048828125,146.3800048828125,146.3800048828125,146.3800048828125,472,0.0,0.0
2024-06-21 15:34:00-04:00,146.38999938964844,146.41000366210938,146.33999633789062,146.41000366210938,1235,0.0,0.0
2024-06-21 15:35:00-04:00,146.42999267578125,146.47000122070312,146.42999267578125,146.47000122070312,1876,0.0,0.0
2024-06-21 15:39:00-04:00,146.49000549316406,146.49000549316406,146.49000549316406,146.49000549316406,604,0.0,0.0
2024-06-21 15:40:00-04:00,146.47500610351562,146.47500610351562,146.47500610351562,146.47500610351562,870,0.0,0.0
2024-06-21 15:42:00-04:00,146.5399932861328,146.83999633789062,146.5399932861328,146.83999633789062,3015,0.0,0.0
2024-06-21 15:43:00-04:00,146.72999572753906,146.7899932861328,146.6999969482422,146.75750732421875,9749,0.0,0.0
2024-06-21 15:44:00-04:00,146.8000030517578,146.8000030517578,146.52000427246094,146.55999755859375,4104,0.0,0.0
2024-06-21 15:45:00-04:00,146.66000366210938,146.66000366210938,146.52999877929688,146.60499572753906,562,0.0,0.0
2024-06-21 15:46:00-04:00,146.6699981689453,146.6699981689453,146.64999389648438,146.64999389648438,1190,0.0,0.0
2024-06-21 15:47:00-04:00,146.58999633789062,146.58999633789062,146.5500030517578,146.5500030517578,658,0.0,0.0
2024-06-21 15:48:00-04:00,146.58999633789062,146.58999633789062,146.58999633789062,146.58999633789062,513,0.0,0.0
2024-06-21 15:49:00-04:00,146.58999633789062,146.6750030517578,146.58999633789062,146.6750030517578,2696,0.0,0.0
2024-06-21 15:50:00-04:00,146.67999267578125,146.75,146.67999267578125,146.75,719,0.0,0.0
2024-06-21 15:51:00-04:00,146.86000061035156,146.8699951171875,146.85000610351562,146.85000610351562,2133,0.0,0.0
2024-06-21 15:52:00-04:00,146.92999267578125,146.9949951171875,146.92999267578125,146.9949951171875,1755,0.0,0.0
2024-06-21 15:53:00-04:00,147.0,147.0050048828125,147.0,147.0050048828125,329,0.0,0.0
2024-06-21 15:54:00-04:00,147.05999755859375,147.10000610351562,147.00999450683594,147.10000610351562,2825,0.0,0.0
2024-06-21 15:55:00-04:00,147.05999755859375,147.13499450683594,147.0399932861328,147.13499450683594,4569,0.0,0.0
2024-06-21 15:56:00-04:00,147.08999633789062,147.08999633789062,147.02499389648438,147.0449981689453,4229,0.0,0.0
2024-06-21 15:57:00-04:00,147.0449981689453,147.0500030517578,147.01499938964844,147.0500030517578,5372,0.0,0.0
2024-06-21 15:58:00-04:00,147.01499938964844,147.01499938964844,146.9600067138672,146.99000549316406,5314,0.0,0.0
2024-06-21 15:59:00-04:00,146.9550018310547,146.9600067138672,146.77000427246094,146.77999877929688,18326,0.0,0.0
